Date,Close
2010-01-04 00:00:00-05:00,3.6615717212025274
2010-01-05 00:00:00-05:00,3.6492426311445776
2010-01-06 00:00:00-05:00,3.6525660478158755
2010-01-07 00:00:00-05:00,3.643173408742371
2010-01-08 00:00:00-05:00,3.6482336155390525
2010-01-11 00:00:00-05:00,3.6390043214291286
2010-01-12 00:00:00-05:00,3.610897498650493
2010-01-13 00:00:00-05:00,3.636645293988251
2010-01-14 00:00:00-05:00,3.6390978451800944
2010-01-15 00:00:00-05:00,3.6274998989599885
2010-01-19 00:00:00-05:00,3.6324427897455682
2010-01-20 00:00:00-05:00,3.621909696222565
2010-01-21 00:00:00-05:00,3.6246050785881434
2010-01-22 00:00:00-05:00,3.597956475594648
2010-01-25 00:00:00-05:00,3.60769083854666
2010-01-26 00:00:00-05:00,3.588233370239869
2010-01-27 00:00:00-05:00,3.580148915240772
2010-01-28 00:00:00-05:00,3.5705779143828624
2010-01-29 00:00:00-05:00,3.5585951947300813
2010-02-01 00:00:00-05:00,3.613779682517584
2010-02-02 00:00:00-05:00,3.6291501104134642
2010-02-03 00:00:00-05:00,3.6309006898225125
2010-02-04 00:00:00-05:00,3.5856536305941558
2010-02-05 00:00:00-05:00,3.5852230791162185
2010-02-08 00:00:00-05:00,3.571342769870195
2010-02-09 00:00:00-05:00,3.6031529776597906
2010-02-10 00:00:00-05:00,3.53418986669158
2010-02-11 00:00:00-05:00,3.5656488945739135
2010-02-12 00:00:00-05:00,3.564769871265934
2010-02-16 00:00:00-05:00,3.584792024696913
2010-02-17 00:00:00-05:00,3.5852230791162185
2010-02-18 00:00:00-05:00,3.6010353635712318
2010-02-19 00:00:00-05:00,3.6042101573629934
2010-02-22 00:00:00-05:00,3.577113298641826
2010-02-23 00:00:00-05:00,3.5529393969061145
2010-02-24 00:00:00-05:00,3.5832825052413244
2010-02-25 00:00:00-05:00,3.5890924389195717
2010-02-26 00:00:00-05:00,3.597956475594648
2010-03-01 00:00:00-05:00,3.6043157101068477
2010-03-02 00:00:00-05:00,3.6062156213439787
2010-03-03 00:00:00-05:00,3.616601096632155
2010-03-04 00:00:00-05:00,3.6101103142030264
2010-03-05 00:00:00-05:00,3.632750702645375
2010-03-08 00:00:00-05:00,3.6326478065229546
2010-03-09 00:00:00-05:00,3.6396073107893594
2010-03-10 00:00:00-05:00,3.6476327260495633
2010-03-11 00:00:00-05:00,3.636849953381031
2010-03-12 00:00:00-05:00,3.6348023781605003
2010-03-15 00:00:00-04:00,3.627705931516903
2010-03-16 00:00:00-04:00,3.623465916471997
2010-03-17 00:00:00-04:00,3.616496935305029
2010-03-18 00:00:00-04:00,3.5897358615624566
2010-03-19 00:00:00-04:00,3.5726521168154224
2010-03-22 00:00:00-04:00,3.5704694910607495
2010-03-23 00:00:00-04:00,3.598913046985263
2010-03-24 00:00:00-04:00,3.582094937003239
2010-03-25 00:00:00-04:00,3.547474125681339
2010-03-26 00:00:00-04:00,3.5493734356372433
2010-03-29 00:00:00-04:00,3.586298951928691
2010-03-30 00:00:00-04:00,3.5903781338027883
2010-03-31 00:00:00-04:00,3.5860842081619877
2010-04-01 00:00:00-04:00,3.61409349785212
2010-04-05 00:00:00-04:00,3.6367470763297662
2010-04-06 00:00:00-04:00,3.632750702645375
2010-04-07 00:00:00-04:00,3.6960179160246778
2010-04-08 00:00:00-04:00,3.726584933523632
2010-04-09 00:00:00-04:00,3.705897574452188
2010-04-12 00:00:00-04:00,3.72863981963166
2010-04-13 00:00:00-04:00,3.73050361704544
2010-04-14 00:00:00-04:00,3.749579200205209
2010-04-15 00:00:00-04:00,3.7605896665587872
2010-04-16 00:00:00-04:00,3.7327860722735977
2010-04-19 00:00:00-04:00,3.7376130320062884
2010-04-20 00:00:00-04:00,3.7696886807747587
2010-04-21 00:00:00-04:00,3.7729121114509554
2010-04-22 00:00:00-04:00,3.78305064517365
2010-04-23 00:00:00-04:00,3.7893140120768343
2010-04-26 00:00:00-04:00,3.7783498268038027
2010-04-27 00:00:00-04:00,3.7435217362366457
2010-04-28 00:00:00-04:00,3.7507678715870663
2010-04-29 00:00:00-04:00,3.7674442248019755
2010-04-30 00:00:00-04:00,3.7751439921920595
2010-05-03 00:00:00-04:00,3.7879055191978264
2010-05-04 00:00:00-04:00,3.7582342748598587
2010-05-05 00:00:00-04:00,3.711152484636575
2010-05-06 00:00:00-04:00,3.6841681896471297
2010-05-07 00:00:00-04:00,3.6691095239608114
2010-05-10 00:00:00-04:00,3.723625286836948
2010-05-11 00:00:00-04:00,3.707055380122107
2010-05-12 00:00:00-04:00,3.7412180679772384
2010-05-13 00:00:00-04:00,3.7384460617972546
2010-05-14 00:00:00-04:00,3.7198623091088043
2010-05-17 00:00:00-04:00,3.6925341141365022
2010-05-18 00:00:00-04:00,3.6887485060569714
2010-05-19 00:00:00-04:00,3.682799166515646
2010-05-20 00:00:00-04:00,3.6229388885595517
2010-05-21 00:00:00-04:00,3.666627186976524
2010-05-24 00:00:00-04:00,3.633989668423827
2010-05-25 00:00:00-04:00,3.6477607235184095
2010-05-26 00:00:00-04:00,3.6581412628951826
2010-05-27 00:00:00-04:00,3.7238132671411077
2010-05-28 00:00:00-04:00,3.708009963984642
2010-06-01 00:00:00-04:00,3.6690103992880108
2010-06-02 00:00:00-04:00,3.7353879172182207
2010-06-03 00:00:00-04:00,3.7535972499523225
2010-06-04 00:00:00-04:00,3.690206183634845
2010-06-07 00:00:00-04:00,3.672079771196786
2010-06-08 00:00:00-04:00,3.7129574324714247
2010-06-09 00:00:00-04:00,3.6981369886390283
2010-06-10 00:00:00-04:00,3.7448099739738954
2010-06-11 00:00:00-04:00,3.754781514737073
2010-06-14 00:00:00-04:00,3.7464634975755886
2010-06-15 00:00:00-04:00,3.7593220544687367
2010-06-16 00:00:00-04:00,3.7595940811558677
2010-06-17 00:00:00-04:00,3.756600116233964
2010-06-18 00:00:00-04:00,3.7580527445050826
2010-06-21 00:00:00-04:00,3.761585148554944
2010-06-22 00:00:00-04:00,3.7232497730576473
2010-06-23 00:00:00-04:00,3.7269065002597643
2010-06-24 00:00:00-04:00,3.7056223562978676
2010-06-25 00:00:00-04:00,3.7540524144076635
2010-06-28 00:00:00-04:00,3.7135265684262797
2010-06-29 00:00:00-04:00,3.6631415499513817
2010-06-30 00:00:00-04:00,3.644310395727949
2010-07-01 00:00:00-04:00,3.6515019737190926
2010-07-02 00:00:00-04:00,3.644005124552078
2010-07-06 00:00:00-04:00,3.659243292541735
2010-07-07 00:00:00-04:00,3.6980404165876988
2010-07-08 00:00:00-04:00,3.721086812257921
2010-07-09 00:00:00-04:00,3.7149484109036246
2010-07-12 00:00:00-04:00,3.7146642412689825
2010-07-13 00:00:00-04:00,3.726626076327463
2010-07-14 00:00:00-04:00,3.726485191933253
2010-07-15 00:00:00-04:00,3.72225650633552
2010-07-16 00:00:00-04:00,3.6847409201893364
2010-07-19 00:00:00-04:00,3.6820977248361673
2010-07-20 00:00:00-04:00,3.7028587594085134
2010-07-21 00:00:00-04:00,3.686108436993281
2010-07-22 00:00:00-04:00,3.6936954334036263
2010-07-23 00:00:00-04:00,3.6852296704932854
2010-07-26 00:00:00-04:00,3.6987216078986638
2010-07-27 00:00:00-04:00,3.6677811765765895
2010-07-28 00:00:00-04:00,3.6677811765765895
2010-07-29 00:00:00-04:00,3.6679803415743453
2010-07-30 00:00:00-04:00,3.6368787851870756
2010-08-02 00:00:00-04:00,3.6869870052293274
2010-08-03 00:00:00-04:00,3.6790536977916886
2010-08-04 00:00:00-04:00,3.6917555061115546
2010-08-05 00:00:00-04:00,3.6863039854410795
2010-08-06 00:00:00-04:00,3.654769157518542
2010-08-09 00:00:00-04:00,3.66159671282421
2010-08-10 00:00:00-04:00,3.6691721649090447
2010-08-11 00:00:00-04:00,3.6332828697483155
2010-08-12 00:00:00-04:00,3.614685500856343
2010-08-13 00:00:00-04:00,3.6021286910219947
2010-08-16 00:00:00-04:00,3.6012783591519697
2010-08-17 00:00:00-04:00,3.6125862235425408
2010-08-18 00:00:00-04:00,3.593382517903824
2010-08-19 00:00:00-04:00,3.573583961641562
2010-08-20 00:00:00-04:00,3.5724905644208333
2010-08-23 00:00:00-04:00,3.5758760943008245
2010-08-24 00:00:00-04:00,3.5412711960084944
2010-08-25 00:00:00-04:00,3.528208271471992
2010-08-26 00:00:00-04:00,3.5185573768223257
2010-08-27 00:00:00-04:00,3.550147445347389
2010-08-30 00:00:00-04:00,3.5293509228595212
2010-08-31 00:00:00-04:00,3.521439481726093
2010-09-01 00:00:00-04:00,3.5561691920777125
2010-09-02 00:00:00-04:00,3.5511531352889647
2010-09-03 00:00:00-04:00,3.560496289973283
2010-09-07 00:00:00-04:00,3.54239924727807
2010-09-08 00:00:00-04:00,3.5598317082846487
2010-09-09 00:00:00-04:00,3.5498118078222425
2010-09-10 00:00:00-04:00,3.5809864842482257
2010-09-13 00:00:00-04:00,3.581962921462144
2010-09-14 00:00:00-04:00,3.5809864842482257
2010-09-15 00:00:00-04:00,3.5742397902209997
2010-09-16 00:00:00-04:00,3.5678862940046043
2010-09-17 00:00:00-04:00,3.546898440511925
2010-09-20 00:00:00-04:00,3.5312906285558565
2010-09-21 00:00:00-04:00,3.55260535105874
2010-09-22 00:00:00-04:00,3.560828252671617
2010-09-23 00:00:00-04:00,3.5531630152295692
2010-09-24 00:00:00-04:00,3.5800101560359896
2010-09-27 00:00:00-04:00,3.570629438177636
2010-09-28 00:00:00-04:00,3.5764211479737087
2010-09-29 00:00:00-04:00,3.5984047572596194
2010-09-30 00:00:00-04:00,3.5893032718003144
2010-10-01 00:00:00-04:00,3.6231442333301698
2010-10-04 00:00:00-04:00,3.6184541942788986
2010-10-05 00:00:00-04:00,3.6351342209220134
2010-10-06 00:00:00-04:00,3.647286215917981
2010-10-07 00:00:00-04:00,3.64769215548329
2010-10-08 00:00:00-04:00,3.656782400965029
2010-10-11 00:00:00-04:00,3.6577872588465543
2010-10-12 00:00:00-04:00,3.6512366199053568
2010-10-13 00:00:00-04:00,3.651186313556517
2010-10-14 00:00:00-04:00,3.6538159812049766
2010-10-15 00:00:00-04:00,3.6641650665176617
2010-10-18 00:00:00-04:00,3.676977527409695
2010-10-19 00:00:00-04:00,3.658551668078223
2010-10-20 00:00:00-04:00,3.6649644703052946
2010-10-21 00:00:00-04:00,3.6516927275253557
2010-10-22 00:00:00-04:00,3.6364967716495857
2010-10-25 00:00:00-04:00,3.6380370957977064
2010-10-26 00:00:00-04:00,3.620335628334099
2010-10-27 00:00:00-04:00,3.6204404118337146
2010-10-28 00:00:00-04:00,3.6118407465402176
2010-10-29 00:00:00-04:00,3.6200222335974845
2010-11-01 00:00:00-04:00,3.6236719674068065
2010-11-02 00:00:00-04:00,3.6409055546483455
2010-11-03 00:00:00-04:00,3.543178120205489
2010-11-04 00:00:00-04:00,3.539221962586282
2010-11-05 00:00:00-04:00,3.5428395831304047
2010-11-08 00:00:00-05:00,3.5523863085229523
2010-11-09 00:00:00-05:00,3.580275004608958
2010-11-10 00:00:00-05:00,3.600612218784781
2010-11-11 00:00:00-05:00,3.6030592522145937
2010-11-12 00:00:00-05:00,3.580926567322388
2010-11-15 00:00:00-05:00,3.5850465110519716
2010-11-16 00:00:00-05:00,3.5700034589910272
2010-11-17 00:00:00-05:00,3.560291766911456
2010-11-18 00:00:00-05:00,3.5815782366266884
2010-11-19 00:00:00-05:00,3.590764393302106
2010-11-22 00:00:00-05:00,3.585803555631918
2010-11-23 00:00:00-05:00,3.5438545199737095
2010-11-24 00:00:00-05:00,3.556180191108219
2010-11-26 00:00:00-05:00,3.5463322118675293
2010-11-29 00:00:00-05:00,3.5497001228259863
2010-11-30 00:00:00-05:00,3.5466691290542953
2010-12-01 00:00:00-05:00,3.5763534860939696
2010-12-02 00:00:00-05:00,3.6003992768526367
2010-12-03 00:00:00-05:00,3.599120046209859
2010-12-06 00:00:00-05:00,3.6059242954360835
2010-12-07 00:00:00-05:00,3.5880710457699854
2010-12-08 00:00:00-05:00,3.5825555814085503
2010-12-09 00:00:00-05:00,3.5828804086302095
2010-12-10 00:00:00-05:00,3.5667033501828116
2010-12-13 00:00:00-05:00,3.5661520021228723
2010-12-14 00:00:00-05:00,3.5765717165785613
2010-12-15 00:00:00-05:00,3.559737088524717
2010-12-16 00:00:00-05:00,3.5640553993234407
2010-12-17 00:00:00-05:00,3.576790006128245
2010-12-20 00:00:00-05:00,3.5744962273778174
2010-12-21 00:00:00-05:00,3.5765717165785613
2010-12-22 00:00:00-05:00,3.5825555814085503
2010-12-23 00:00:00-05:00,3.574387051789734
2010-12-27 00:00:00-05:00,3.559737088524717
2010-12-28 00:00:00-05:00,3.558182393720545
2010-12-29 00:00:00-05:00,3.5715397906316406
2010-12-30 00:00:00-05:00,3.577662688135524
2010-12-31 00:00:00-05:00,3.573949588309353
2011-01-03 00:00:00-05:00,3.5841806753993146
2011-01-04 00:00:00-05:00,3.5819039120956635
2011-01-05 00:00:00-05:00,3.5839644170491733
2011-01-06 00:00:00-05:00,3.589257442346454
2011-01-07 00:00:00-05:00,3.6046517025708273
2011-01-10 00:00:00-05:00,3.6119457029496718
2011-01-11 00:00:00-05:00,3.630518508368398
2011-01-12 00:00:00-05:00,3.6501535831056926
2011-01-13 00:00:00-05:00,3.6437364766529363
2011-01-14 00:00:00-05:00,3.6711516972444294
2011-01-18 00:00:00-05:00,3.693762057476466
2011-01-19 00:00:00-05:00,3.679665939948101
2011-01-20 00:00:00-05:00,3.6788772439395956
2011-01-21 00:00:00-05:00,3.682422591510728
2011-01-24 00:00:00-05:00,3.68252135540248
2011-01-25 00:00:00-05:00,3.664068090099572
2011-01-26 00:00:00-05:00,3.6879126287040225
2011-01-27 00:00:00-05:00,3.697351668748612
2011-01-28 00:00:00-05:00,3.6903541771797777
2011-01-31 00:00:00-05:00,3.7273101946471208
2011-02-01 00:00:00-05:00,3.7365722909760515
2011-02-02 00:00:00-05:00,3.7352678366903813
2011-02-03 00:00:00-05:00,3.7334949035569593
2011-02-04 00:00:00-05:00,3.730969504175106
2011-02-07 00:00:00-05:00,3.7197622645694834
2011-02-08 00:00:00-05:00,3.711870381174701
2011-02-09 00:00:00-05:00,3.704108381164918
2011-02-10 00:00:00-05:00,3.706894664325824
2011-02-11 00:00:00-05:00,3.6978360915495156
2011-02-14 00:00:00-05:00,3.7132061609970655
2011-02-15 00:00:00-05:00,3.700253466057585
2011-02-16 00:00:00-05:00,3.6948305678684785
2011-02-17 00:00:00-05:00,3.7067027268333463
2011-02-18 00:00:00-05:00,3.750536921411657
2011-02-22 00:00:00-05:00,3.7452886245149073
2011-02-23 00:00:00-05:00,3.799812298466024
2011-02-24 00:00:00-05:00,3.7622232616766915
2011-02-25 00:00:00-05:00,3.776462752905663
2011-02-28 00:00:00-05:00,3.7814617024606565
2011-03-01 00:00:00-05:00,3.741681614587558
2011-03-02 00:00:00-05:00,3.748698446465915
2011-03-03 00:00:00-05:00,3.7705393707619765
2011-03-04 00:00:00-05:00,3.755026661681396
2011-03-07 00:00:00-05:00,3.747685640346254
2011-03-08 00:00:00-05:00,3.725522808389916
2011-03-09 00:00:00-05:00,3.7217491670423923
2011-03-10 00:00:00-05:00,3.6932758465120856
2011-03-11 00:00:00-05:00,3.720330406747875
2011-03-14 00:00:00-04:00,3.7286251555271788
2011-03-15 00:00:00-04:00,3.7183406805276746
2011-03-16 00:00:00-04:00,3.7092900789630567
2011-03-17 00:00:00-04:00,3.748606276717201
2011-03-18 00:00:00-04:00,3.741681614587558
2011-03-21 00:00:00-04:00,3.773326142779396
2011-03-22 00:00:00-04:00,3.790767120921728
2011-03-23 00:00:00-04:00,3.797011080537444
2011-03-24 00:00:00-04:00,3.809902018321023
2011-03-25 00:00:00-04:00,3.8269776344785416
2011-03-28 00:00:00-04:00,3.8346051064083064
2011-03-29 00:00:00-04:00,3.8449363185972216
2011-03-30 00:00:00-04:00,3.8409173132531196
2011-03-31 00:00:00-04:00,3.835195991564844
2011-04-01 00:00:00-04:00,3.834182702121882
2011-04-04 00:00:00-04:00,3.8340139543839262
2011-04-05 00:00:00-04:00,3.821688630703854
2011-04-06 00:00:00-04:00,3.8034774914029943
2011-04-07 00:00:00-04:00,3.8021699746901207
2011-04-08 00:00:00-04:00,3.8021699746901207
2011-04-11 00:00:00-04:00,3.7846618512857044
2011-04-12 00:00:00-04:00,3.7536544585176044
2011-04-13 00:00:00-04:00,3.7676749172978807
2011-04-14 00:00:00-04:00,3.7686690099117537
2011-04-15 00:00:00-04:00,3.7715549422263144
2011-04-18 00:00:00-04:00,3.7609624229358394
2011-04-19 00:00:00-04:00,3.757315071975251
2011-04-20 00:00:00-04:00,3.778555000164022
2011-04-21 00:00:00-04:00,3.779002085169004
2011-04-25 00:00:00-04:00,3.7652307702322716
2011-04-26 00:00:00-04:00,3.7776599682550165
2011-04-27 00:00:00-04:00,3.7780183911979215
2011-04-28 00:00:00-04:00,3.779984899500097
2011-04-29 00:00:00-04:00,3.789494612753103
2011-05-02 00:00:00-04:00,3.7706543232611467
2011-05-03 00:00:00-04:00,3.745183699833425
2011-05-04 00:00:00-04:00,3.7277417966155175
2011-05-05 00:00:00-04:00,3.7094150947420235
2011-05-06 00:00:00-04:00,3.7385969770239753
2011-05-09 00:00:00-04:00,3.774073472228573
2011-05-10 00:00:00-04:00,3.769842430067665
2011-05-11 00:00:00-04:00,3.7315919944101816
2011-05-12 00:00:00-04:00,3.7205652973552623
2011-05-13 00:00:00-04:00,3.7198068327816483
2011-05-16 00:00:00-04:00,3.7127638617469074
2011-05-17 00:00:00-04:00,3.721417629075167
2011-05-18 00:00:00-04:00,3.730935489138994
2011-05-19 00:00:00-04:00,3.7250090294333162
2011-05-20 00:00:00-04:00,3.733090596440062
2011-05-23 00:00:00-04:00,3.708456147272911
2011-05-24 00:00:00-04:00,3.7256695276428893
2011-05-25 00:00:00-04:00,3.736360684145117
2011-05-26 00:00:00-04:00,3.736640392115817
2011-05-27 00:00:00-04:00,3.745183699833425
2011-05-31 00:00:00-04:00,3.7542959535634592
2011-06-01 00:00:00-04:00,3.7455535914532705
2011-06-02 00:00:00-04:00,3.770383706829281
2011-06-03 00:00:00-04:00,3.7672229145065814
2011-06-06 00:00:00-04:00,3.753562565666035
2011-06-07 00:00:00-04:00,3.744258461983609
2011-06-08 00:00:00-04:00,3.7524618770655835
2011-06-09 00:00:00-04:00,3.769210834012994
2011-06-10 00:00:00-04:00,3.7407352009216854
2011-06-13 00:00:00-04:00,3.712859115516103
2011-06-14 00:00:00-04:00,3.7159106238538806
2011-06-15 00:00:00-04:00,3.695130569847045
2011-06-16 00:00:00-04:00,3.6828064586175797
2011-06-17 00:00:00-04:00,3.6890856172480637
2011-06-20 00:00:00-04:00,3.6757944928410304
2011-06-21 00:00:00-04:00,3.6884981978207234
2011-06-22 00:00:00-04:00,3.680145535726574
2011-06-23 00:00:00-04:00,3.668433452401087
2011-06-24 00:00:00-04:00,3.6493832208307353
2011-06-27 00:00:00-04:00,3.670129188464066
2011-06-28 00:00:00-04:00,3.690648956194294
2011-06-29 00:00:00-04:00,3.6973636781611545
2011-06-30 00:00:00-04:00,3.7113302353408417
2011-07-01 00:00:00-04:00,3.697169807811391
2011-07-05 00:00:00-04:00,3.698720757997571
2011-07-06 00:00:00-04:00,3.6892807750936734
2011-07-07 00:00:00-04:00,3.7017191490307555
2011-07-08 00:00:00-04:00,3.6858524928420344
2011-07-11 00:00:00-04:00,3.6568850098804946
2011-07-12 00:00:00-04:00,3.655672527968198
2011-07-13 00:00:00-04:00,3.6577976869866347
2011-07-14 00:00:00-04:00,3.635000571082582
2011-07-15 00:00:00-04:00,3.6802837713353926
2011-07-18 00:00:00-04:00,3.683539331418116
2011-07-19 00:00:00-04:00,3.7079631827182102
2011-07-20 00:00:00-04:00,3.705846287407542
2011-07-21 00:00:00-04:00,3.7225632391602645
2011-07-22 00:00:00-04:00,3.732085963037825
2011-07-25 00:00:00-04:00,3.728701956388266
2011-07-26 00:00:00-04:00,3.732085963037825
2011-07-27 00:00:00-04:00,3.7083476598023126
2011-07-28 00:00:00-04:00,3.702178875702924
2011-07-29 00:00:00-04:00,3.688256606223272
2011-08-01 00:00:00-04:00,3.6845241851915564
2011-08-02 00:00:00-04:00,3.660522882242388
2011-08-03 00:00:00-04:00,3.6480470684632875
2011-08-04 00:00:00-04:00,3.586484279305171
2011-08-05 00:00:00-04:00,3.6267979340482754
2011-08-08 00:00:00-04:00,3.547415242777885
2011-08-09 00:00:00-04:00,3.5726036966881085
2011-08-10 00:00:00-04:00,3.52907682348123
2011-08-11 00:00:00-04:00,3.5973872975713674
2011-08-12 00:00:00-04:00,3.60817292778304
2011-08-15 00:00:00-04:00,3.6306483107797916
2011-08-16 00:00:00-04:00,3.6127299008016727
2011-08-17 00:00:00-04:00,3.606578727485881
2011-08-18 00:00:00-04:00,3.5364069447874504
2011-08-19 00:00:00-04:00,3.5357225970180868
2011-08-22 00:00:00-04:00,3.521692687211926
2011-08-23 00:00:00-04:00,3.551583179425999
2011-08-24 00:00:00-04:00,3.562204147756528
2011-08-25 00:00:00-04:00,3.5435709134852917
2011-08-26 00:00:00-04:00,3.5614251179762557
2011-08-29 00:00:00-04:00,3.5801692224441046
2011-08-30 00:00:00-04:00,3.5872439315745366
2011-08-31 00:00:00-04:00,3.5914647721978445
2011-09-01 00:00:00-04:00,3.5787478925460894
2011-09-02 00:00:00-04:00,3.5445895155424356
2011-09-06 00:00:00-04:00,3.5287324705717187
2011-09-07 00:00:00-04:00,3.5705103927245134
2011-09-08 00:00:00-04:00,3.5547251999663425
2011-09-09 00:00:00-04:00,3.5096927414360755
2011-09-12 00:00:00-04:00,3.518909094064737
2011-09-13 00:00:00-04:00,3.5263139617860935
2011-09-14 00:00:00-04:00,3.5377757898612936
2011-09-15 00:00:00-04:00,3.5675277031197465
2011-09-16 00:00:00-04:00,3.5648696299019402
2011-09-19 00:00:00-04:00,3.5378897018101423
2011-09-20 00:00:00-04:00,3.530570369356506
2011-09-21 00:00:00-04:00,3.4872918043777092
2011-09-22 00:00:00-04:00,3.4038369714565717
2011-09-23 00:00:00-04:00,3.3635577492811923
2011-09-26 00:00:00-04:00,3.4029247097724045
2011-09-27 00:00:00-04:00,3.4277826489436096
2011-09-28 00:00:00-04:00,3.371259786450429
2011-09-29 00:00:00-04:00,3.3643713413076135
2011-09-30 00:00:00-04:00,3.326104360924357
2011-10-03 00:00:00-04:00,3.2888028200656905
2011-10-04 00:00:00-04:00,3.3627438251373887
2011-10-05 00:00:00-04:00,3.40448862096422
2011-10-06 00:00:00-04:00,3.426891238544842
2011-10-07 00:00:00-04:00,3.379437858135338
2011-10-10 00:00:00-04:00,3.4379080308995147
2011-10-11 00:00:00-04:00,3.447058963233491
2011-10-12 00:00:00-04:00,3.457115366436839
2011-10-13 00:00:00-04:00,3.4500352586845064
2011-10-14 00:00:00-04:00,3.4958409232599834
2011-10-17 00:00:00-04:00,3.4647606530375783
2011-10-18 00:00:00-04:00,3.5198419980911377
2011-10-19 00:00:00-04:00,3.541121076232972
2011-10-20 00:00:00-04:00,3.535070703432108
2011-10-21 00:00:00-04:00,3.571937146089441
2011-10-24 00:00:00-04:00,3.577000568779305
2011-10-25 00:00:00-04:00,3.537129562622918
2011-10-26 00:00:00-04:00,3.535985991343362
2011-10-27 00:00:00-04:00,3.596140096018462
2011-10-28 00:00:00-04:00,3.6210321405737846
2011-10-31 00:00:00-04:00,3.5587183826511293
2011-11-01 00:00:00-04:00,3.518213340783137
2011-11-02 00:00:00-04:00,3.630027047540776
2011-11-03 00:00:00-04:00,3.670732738821356
2011-11-04 00:00:00-04:00,3.687092771361018
2011-11-07 00:00:00-05:00,3.682064598634409
2011-11-08 00:00:00-05:00,3.689352460057354
2011-11-09 00:00:00-05:00,3.6525738604267444
2011-11-10 00:00:00-05:00,3.6708322755483787
2011-11-11 00:00:00-05:00,3.709749421140272
2011-11-14 00:00:00-05:00,3.7074394574171867
2011-11-15 00:00:00-05:00,3.6937585460620674
2011-11-16 00:00:00-05:00,3.6773087888583356
2011-11-17 00:00:00-05:00,3.640179398570757
2011-11-18 00:00:00-05:00,3.6485955844572735
2011-11-21 00:00:00-05:00,3.629715056963517
2011-11-22 00:00:00-05:00,3.618928669020333
2011-11-23 00:00:00-05:00,3.582802578483755
2011-11-25 00:00:00-05:00,3.574692307172444
2011-11-28 00:00:00-05:00,3.625330331868933
2011-11-29 00:00:00-05:00,3.6525738604267444
2011-11-30 00:00:00-05:00,3.70715043004844
2011-12-01 00:00:00-05:00,3.695417596486632
2011-12-02 00:00:00-05:00,3.695710223874826
2011-12-05 00:00:00-05:00,3.6913129379324965
2011-12-06 00:00:00-05:00,3.7181743592982106
2011-12-07 00:00:00-05:00,3.7002824123207354
2011-12-08 00:00:00-05:00,3.6767129605075946
2011-12-09 00:00:00-05:00,3.7072464072596847
2011-12-12 00:00:00-05:00,3.6808779571882204
2011-12-13 00:00:00-05:00,3.655318832211192
2011-12-14 00:00:00-05:00,3.599688030596068
2011-12-15 00:00:00-05:00,3.613227157028663
2011-12-16 00:00:00-05:00,3.646959376464983
2011-12-19 00:00:00-05:00,3.6251210647923093
2011-12-20 00:00:00-05:00,3.6499232704837956
2011-12-21 00:00:00-05:00,3.6520649242836827
2011-12-22 00:00:00-05:00,3.653591647873353
2011-12-23 00:00:00-05:00,3.652980822931894
2011-12-27 00:00:00-05:00,3.6604833429564962
2011-12-28 00:00:00-05:00,3.634183187490063
2011-12-29 00:00:00-05:00,3.650739684240869
2011-12-30 00:00:00-05:00,3.6554201122199803
2012-01-03 00:00:00-05:00,3.68482834792326
2012-01-04 00:00:00-05:00,3.6862072200350573
2012-01-05 00:00:00-05:00,3.6917043444761513
2012-01-06 00:00:00-05:00,3.694441900692824
2012-01-09 00:00:00-05:00,3.691899942773406
2012-01-10 00:00:00-05:00,3.7241626084879837
2012-01-11 00:00:00-05:00,3.701640341730711
2012-01-12 00:00:00-05:00,3.710050770242411
2012-01-13 00:00:00-05:00,3.70193153061423
2012-01-17 00:00:00-05:00,3.7085092644318887
2012-01-18 00:00:00-05:00,3.7242921302605496
2012-01-19 00:00:00-05:00,3.721536430510062
2012-01-20 00:00:00-05:00,3.703095627021172
2012-01-23 00:00:00-05:00,3.7264728842703367
2012-01-24 00:00:00-05:00,3.716479751880776
2012-01-25 00:00:00-05:00,3.7378661467056977
2012-01-26 00:00:00-05:00,3.7183905900215866
2012-01-27 00:00:00-05:00,3.712358349758723
2012-01-30 00:00:00-05:00,3.7237226431256265
2012-01-31 00:00:00-05:00,3.731573626899037
2012-02-01 00:00:00-05:00,3.7293096482576344
2012-02-02 00:00:00-05:00,3.7347717030257317
2012-02-03 00:00:00-05:00,3.7589877184353324
2012-02-06 00:00:00-05:00,3.767839992403242
2012-02-07 00:00:00-05:00,3.7775150968255384
2012-02-08 00:00:00-05:00,3.780121230822682
2012-02-09 00:00:00-05:00,3.7893229825077066
2012-02-10 00:00:00-05:00,3.7837943878611755
2012-02-13 00:00:00-05:00,3.797559154580092
2012-02-14 00:00:00-05:00,3.800817772008358
2012-02-15 00:00:00-05:00,3.8103539744624455
2012-02-16 00:00:00-05:00,3.8342731675558808
2012-02-17 00:00:00-05:00,3.8060784162377863
2012-02-21 00:00:00-05:00,3.81738278242705
2012-02-22 00:00:00-05:00,3.817469077984019
2012-02-23 00:00:00-05:00,3.8247056845366294
2012-02-24 00:00:00-05:00,3.833678023689407
2012-02-27 00:00:00-05:00,3.8171235993990176
2012-02-28 00:00:00-05:00,3.8256492702278395
2012-02-29 00:00:00-05:00,3.8017840731643164
2012-03-01 00:00:00-05:00,3.8282187050531853
2012-03-02 00:00:00-05:00,3.8021350614563154
2012-03-05 00:00:00-05:00,3.79597049669242
2012-03-06 00:00:00-05:00,3.791721322506784
2012-03-07 00:00:00-05:00,3.7954402398362475
2012-03-08 00:00:00-05:00,3.806602554841662
2012-03-09 00:00:00-05:00,3.8115725618800465
2012-03-12 00:00:00-04:00,3.800641337027197
2012-03-13 00:00:00-04:00,3.8277054455833697
2012-03-14 00:00:00-04:00,3.8089600260913827
2012-03-15 00:00:00-04:00,3.817209665679334
2012-03-16 00:00:00-04:00,3.8271062958830595
2012-03-19 00:00:00-04:00,3.832315985627136
2012-03-20 00:00:00-04:00,3.809221502470359
2012-03-21 00:00:00-04:00,3.8013450153482267
2012-03-22 00:00:00-04:00,3.7704711663974155
2012-03-23 00:00:00-04:00,3.782899260673571
2012-03-26 00:00:00-04:00,3.786740750359415
2012-03-27 00:00:00-04:00,3.778864032286164
2012-03-28 00:00:00-04:00,3.7639253268971156
2012-03-29 00:00:00-04:00,3.7583454904148477
2012-03-30 00:00:00-04:00,3.7772451087010186
2012-04-02 00:00:00-04:00,3.797294610515792
2012-04-03 00:00:00-04:00,3.7991456342792107
2012-04-04 00:00:00-04:00,3.7720108715404157
2012-04-05 00:00:00-04:00,3.7598122000293857
2012-04-09 00:00:00-04:00,3.7437470900390046
2012-04-10 00:00:00-04:00,3.711205085723005
2012-04-11 00:00:00-04:00,3.7010576152541876
2012-04-12 00:00:00-04:00,3.7245205705637505
2012-04-13 00:00:00-04:00,3.706394931701416
2012-04-16 00:00:00-04:00,3.7009606653005913
2012-04-17 00:00:00-04:00,3.7205209477286694
2012-04-18 00:00:00-04:00,3.714490893453314
2012-04-19 00:00:00-04:00,3.712473016239838
2012-04-20 00:00:00-04:00,3.7034870549428014
2012-04-23 00:00:00-04:00,3.709004109679442
2012-04-24 00:00:00-04:00,3.717175572464491
2012-04-25 00:00:00-04:00,3.735954531855714
2012-04-26 00:00:00-04:00,3.7554013186332593
2012-04-27 00:00:00-04:00,3.7599981188015392
2012-04-30 00:00:00-04:00,3.7672183290742005
2012-05-01 00:00:00-04:00,3.780067170625464
2012-05-02 00:00:00-04:00,3.762380200993472
2012-05-03 00:00:00-04:00,3.747909428547346
2012-05-04 00:00:00-04:00,3.7251856218675434
2012-05-07 00:00:00-04:00,3.720234383252636
2012-05-08 00:00:00-04:00,3.7127617200622702
2012-05-09 00:00:00-04:00,3.7233793209752166
2012-05-10 00:00:00-04:00,3.736705943037929
2012-05-11 00:00:00-04:00,3.715066961410135
2012-05-14 00:00:00-04:00,3.6839833400410185
2012-05-15 00:00:00-04:00,3.665706041702146
2012-05-16 00:00:00-04:00,3.6630815637423204
2012-05-17 00:00:00-04:00,3.6466765995138863
2012-05-18 00:00:00-04:00,3.636039208327083
2012-05-21 00:00:00-04:00,3.6756348580603313
2012-05-22 00:00:00-04:00,3.6868496932107697
2012-05-23 00:00:00-04:00,3.6904939604911156
2012-05-24 00:00:00-04:00,3.6815063771373766
2012-05-25 00:00:00-04:00,3.690985903272329
2012-05-29 00:00:00-04:00,3.7210930916869733
2012-05-30 00:00:00-04:00,3.6834887065169823
2012-05-31 00:00:00-04:00,3.666612559865466
2012-06-01 00:00:00-04:00,3.586662389442993
2012-06-04 00:00:00-04:00,3.5727112461805284
2012-06-05 00:00:00-04:00,3.588841509882746
2012-06-06 00:00:00-04:00,3.6215014154506866
2012-06-07 00:00:00-04:00,3.6270693445184006
2012-06-08 00:00:00-04:00,3.61048438659607
2012-06-11 00:00:00-04:00,3.5894943632522716
2012-06-12 00:00:00-04:00,3.613568600961334
2012-06-13 00:00:00-04:00,3.5978353121159294
2012-06-14 00:00:00-04:00,3.616643639722802
2012-06-15 00:00:00-04:00,3.639459428155801
2012-06-18 00:00:00-04:00,3.6194975781524454
2012-06-19 00:00:00-04:00,3.6322940455589565
2012-06-20 00:00:00-04:00,3.600421156538537
2012-06-21 00:00:00-04:00,3.5283802731010563
2012-06-22 00:00:00-04:00,3.5414764411442445
2012-06-25 00:00:00-04:00,3.5099408405843833
2012-06-26 00:00:00-04:00,3.4988074889932665
2012-06-27 00:00:00-04:00,3.519669763902135
2012-06-28 00:00:00-04:00,3.512998863535461
2012-06-29 00:00:00-04:00,3.5694980949667015
2012-07-02 00:00:00-04:00,3.5564289982372115
2012-07-03 00:00:00-04:00,3.6211851204178402
2012-07-05 00:00:00-04:00,3.590255417047324
2012-07-06 00:00:00-04:00,3.5753625797137576
2012-07-09 00:00:00-04:00,3.584696350706386
2012-07-10 00:00:00-04:00,3.5610283310995596
2012-07-11 00:00:00-04:00,3.5889503835103467
2012-07-12 00:00:00-04:00,3.579875950658172
2012-07-13 00:00:00-04:00,3.602182358787338
2012-07-16 00:00:00-04:00,3.605512958725385
2012-07-17 00:00:00-04:00,3.6267358290353764
2012-07-18 00:00:00-04:00,3.641949074517739
2012-07-19 00:00:00-04:00,3.6578510065316645
2012-07-20 00:00:00-04:00,3.667776403921294
2012-07-23 00:00:00-04:00,3.6471065519586996
2012-07-24 00:00:00-04:00,3.6294624796822292
2012-07-25 00:00:00-04:00,3.631449800955739
2012-07-26 00:00:00-04:00,3.6493672479802157
2012-07-27 00:00:00-04:00,3.6855553394753224
2012-07-30 00:00:00-04:00,3.6710964610926355
2012-07-31 00:00:00-04:00,3.655405221644753
2012-08-01 00:00:00-04:00,3.679995831080284
2012-08-02 00:00:00-04:00,3.635933331802841
2012-08-03 00:00:00-04:00,3.7408253827794384
2012-08-06 00:00:00-04:00,3.7313190970547243
2012-08-07 00:00:00-04:00,3.759295478799294
2012-08-08 00:00:00-04:00,3.75154066465132
2012-08-09 00:00:00-04:00,3.7654380343545606
2012-08-10 00:00:00-04:00,3.7707255028171427
2012-08-13 00:00:00-04:00,3.7644321456096277
2012-08-14 00:00:00-04:00,3.773992720979162
2012-08-15 00:00:00-04:00,3.769178447255971
2012-08-16 00:00:00-04:00,3.7797761006932706
2012-08-17 00:00:00-04:00,3.7815762755590705
2012-08-20 00:00:00-04:00,3.7668991489525228
2012-08-21 00:00:00-04:00,3.75957124477926
2012-08-22 00:00:00-04:00,3.760857976411145
2012-08-23 00:00:00-04:00,3.743258127025883
2012-08-24 00:00:00-04:00,3.760857976411145
2012-08-27 00:00:00-04:00,3.763242263255014
2012-08-28 00:00:00-04:00,3.76003098187904
2012-08-29 00:00:00-04:00,3.7529299921896513
2012-08-30 00:00:00-04:00,3.732736784846564
2012-08-31 00:00:00-04:00,3.7552407813049293
2012-09-04 00:00:00-04:00,3.7646154392806865
2012-09-05 00:00:00-04:00,3.75745488517258
2012-09-06 00:00:00-04:00,3.792488740532993
2012-09-07 00:00:00-04:00,3.796661114421858
2012-09-10 00:00:00-04:00,3.7923997461042003
2012-09-11 00:00:00-04:00,3.7926668775657197
2012-09-12 00:00:00-04:00,3.797546579198915
2012-09-13 00:00:00-04:00,3.8168319591521405
2012-09-14 00:00:00-04:00,3.837794786787293
2012-09-17 00:00:00-04:00,3.8273680528802214
2012-09-18 00:00:00-04:00,3.8228909065096364
2012-09-19 00:00:00-04:00,3.8027553136019643
2012-09-20 00:00:00-04:00,3.8025791350521234
2012-09-21 00:00:00-04:00,3.8060956346667476
2012-09-24 00:00:00-04:00,3.7995804508288327
2012-09-25 00:00:00-04:00,3.7925778989894243
2012-09-26 00:00:00-04:00,3.7762559263439393
2012-09-27 00:00:00-04:00,3.7994922560800855
2012-09-28 00:00:00-04:00,3.7892812348183145
2012-10-01 00:00:00-04:00,3.8081996479876983
2012-10-02 00:00:00-04:00,3.8164844975569987
2012-10-03 00:00:00-04:00,3.7805867588065225
2012-10-04 00:00:00-04:00,3.783642768938566
2012-10-05 00:00:00-04:00,3.769997650652918
2012-10-08 00:00:00-04:00,3.769178447255971
2012-10-09 00:00:00-04:00,3.780316467390528
2012-10-10 00:00:00-04:00,3.766260218120305
2012-10-11 00:00:00-04:00,3.7692694443358548
2012-10-12 00:00:00-04:00,3.759663209109427
2012-10-15 00:00:00-04:00,3.7746502773762747
2012-10-16 00:00:00-04:00,3.805815013657743
2012-10-17 00:00:00-04:00,3.818916793112461
2012-10-18 00:00:00-04:00,3.814655565651269
2012-10-19 00:00:00-04:00,3.7999070366315695
2012-10-22 00:00:00-04:00,3.7913805177722892
2012-10-23 00:00:00-04:00,3.773833564123
2012-10-24 00:00:00-04:00,3.778723868196323
2012-10-25 00:00:00-04:00,3.794141908170668
2012-10-26 00:00:00-04:00,3.8088874568132756
2012-10-31 00:00:00-04:00,3.82970529673998
2012-11-01 00:00:00-04:00,3.833047684183635
2012-11-02 00:00:00-04:00,3.8185694689144136
2012-11-05 00:00:00-05:00,3.832448175343365
2012-11-06 00:00:00-05:00,3.8757572056622442
2012-11-07 00:00:00-05:00,3.859391744893996
2012-11-08 00:00:00-05:00,3.8235051731484297
2012-11-09 00:00:00-05:00,3.8126492904141664
2012-11-12 00:00:00-05:00,3.8147427695768634
2012-11-13 00:00:00-05:00,3.819263661880197
2012-11-14 00:00:00-05:00,3.8024683053941297
2012-11-15 00:00:00-05:00,3.8268687286435608
2012-11-16 00:00:00-05:00,3.831249319035692
2012-11-19 00:00:00-05:00,3.8477407177360234
2012-11-20 00:00:00-05:00,3.8374869208766547
2012-11-21 00:00:00-05:00,3.843770074873926
2012-11-23 00:00:00-05:00,3.8509392843300185
2012-11-26 00:00:00-05:00,3.8310780073698463
2012-11-27 00:00:00-05:00,3.8175272750587856
2012-11-28 00:00:00-05:00,3.8285027309226844
2012-11-29 00:00:00-05:00,3.8395290958097186
2012-11-30 00:00:00-05:00,3.8393587045653326
2012-12-03 00:00:00-05:00,3.8361229033722637
2012-12-04 00:00:00-05:00,3.835611132929322
2012-12-05 00:00:00-05:00,3.8486673781456986
2012-12-06 00:00:00-05:00,3.845630553280333
2012-12-07 00:00:00-05:00,3.8370610451200435
2012-12-10 00:00:00-05:00,3.8402936530605887
2012-12-11 00:00:00-05:00,3.8487516661025074
2012-12-12 00:00:00-05:00,3.865539261456857
2012-12-13 00:00:00-05:00,3.8468972350705832
2012-12-14 00:00:00-05:00,3.8509392843300185
2012-12-17 00:00:00-05:00,3.867442519751293
2012-12-18 00:00:00-05:00,3.8915358680905427
2012-12-19 00:00:00-05:00,3.879602458489943
2012-12-20 00:00:00-05:00,3.8951606694607754
2012-12-21 00:00:00-05:00,3.8887077264252383
2012-12-24 00:00:00-05:00,3.882212557909641
2012-12-26 00:00:00-05:00,3.872225368073597
2012-12-27 00:00:00-05:00,3.8728834657380227
2012-12-28 00:00:00-05:00,3.8477407177360234
2012-12-31 00:00:00-05:00,3.8659531825725995
2013-01-02 00:00:00-05:00,3.8895974420341086
2013-01-03 00:00:00-05:00,3.89363188301596
2013-01-04 00:00:00-05:00,3.9065931751886382
2013-01-07 00:00:00-05:00,3.9081024424818667
2013-01-08 00:00:00-05:00,3.893309956140167
2013-01-09 00:00:00-05:00,3.89724910841548
2013-01-10 00:00:00-05:00,3.908974922968608
2013-01-11 00:00:00-05:00,3.905240796068333
2013-01-14 00:00:00-05:00,3.8974900399048504
2013-01-15 00:00:00-05:00,3.9023779471884192
2013-01-16 00:00:00-05:00,3.9045337884456393
2013-01-17 00:00:00-05:00,3.909784478846797
2013-01-18 00:00:00-05:00,3.9157966988359165
2013-01-22 00:00:00-05:00,3.913506660736821
2013-01-23 00:00:00-05:00,3.899576251317891
2013-01-24 00:00:00-05:00,3.901498224484382
2013-01-25 00:00:00-05:00,3.903735970249494
2013-01-28 00:00:00-05:00,3.8951575658020663
2013-01-29 00:00:00-05:00,3.9169791178946913
2013-01-30 00:00:00-05:00,3.912082741803073
2013-01-31 00:00:00-05:00,3.9014181902747262
2013-02-01 00:00:00-05:00,3.929971318037673
2013-02-04 00:00:00-05:00,3.9197323931026586
2013-02-05 00:00:00-05:00,3.931680663720734
2013-02-06 00:00:00-05:00,3.93825698143191
2013-02-07 00:00:00-05:00,3.9390278870464135
2013-02-08 00:00:00-05:00,3.9657164932174482
2013-02-11 00:00:00-05:00,3.9661667827343194
2013-02-12 00:00:00-05:00,3.971850046508853
2013-02-13 00:00:00-05:00,3.968114663793762
2013-02-14 00:00:00-05:00,3.9660917606070933
2013-02-15 00:00:00-05:00,3.934548533232857
2013-02-19 00:00:00-05:00,3.9515105650642055
2013-02-20 00:00:00-05:00,3.920517555563585
2013-02-21 00:00:00-05:00,3.8938685598444143
2013-02-22 00:00:00-05:00,3.904294548256575
2013-02-25 00:00:00-05:00,3.875398607650013
2013-02-26 00:00:00-05:00,3.8895056033235753
2013-02-27 00:00:00-05:00,3.916821502281491
2013-02-28 00:00:00-05:00,3.9072420789995737
2013-03-01 00:00:00-05:00,3.8854486491028055
2013-03-04 00:00:00-05:00,3.8755628887200992
2013-03-05 00:00:00-05:00,3.899175246064216
2013-03-06 00:00:00-05:00,3.9063669337684392
2013-03-07 00:00:00-05:00,3.921851031874256
2013-03-08 00:00:00-05:00,3.930593324911939
2013-03-11 00:00:00-04:00,3.9304376160297134
2013-03-12 00:00:00-04:00,3.9414139469021725
2013-03-13 00:00:00-04:00,3.9398755164277217
2013-03-14 00:00:00-04:00,3.9547775795550524
2013-03-15 00:00:00-04:00,3.9440244503297373
2013-03-18 00:00:00-04:00,3.932534092620903
2013-03-19 00:00:00-04:00,3.919575135165891
2013-03-20 00:00:00-04:00,3.9114495683394432
2013-03-21 00:00:00-04:00,3.892739217815576
2013-03-22 00:00:00-04:00,3.9014181902747262
2013-03-25 00:00:00-04:00,3.892900752703788
2013-03-26 00:00:00-04:00,3.9323012347961472
2013-03-27 00:00:00-04:00,3.926855842861648
2013-03-28 00:00:00-04:00,3.925841426908376
2013-04-01 00:00:00-04:00,3.929271088161107
2013-04-02 00:00:00-04:00,3.933464309991329
2013-04-03 00:00:00-04:00,3.910339383732002
2013-04-04 00:00:00-04:00,3.884310066281651
2013-04-05 00:00:00-04:00,3.899576251317891
2013-04-08 00:00:00-04:00,3.9165848803784935
2013-04-09 00:00:00-04:00,3.9272459775472357
2013-04-10 00:00:00-04:00,3.9301265001366095
2013-04-11 00:00:00-04:00,3.9273239711959773
2013-04-12 00:00:00-04:00,3.8960610219728586
2013-04-15 00:00:00-04:00,3.8299581753476275
2013-04-16 00:00:00-04:00,3.8551144813764706
2013-04-17 00:00:00-04:00,3.8180969076234703
2013-04-18 00:00:00-04:00,3.822355460568748
2013-04-19 00:00:00-04:00,3.80600546788061
2013-04-22 00:00:00-04:00,3.8317638220447536
2013-04-23 00:00:00-04:00,3.836905366111094
2013-04-24 00:00:00-04:00,3.861639604193943
2013-04-25 00:00:00-04:00,3.877604099615184
2013-04-26 00:00:00-04:00,3.8548627964349316
2013-04-29 00:00:00-04:00,3.8781785673474087
2013-04-30 00:00:00-04:00,3.871843342639366
2013-05-01 00:00:00-04:00,3.8524251399854514
2013-05-02 00:00:00-04:00,3.859469344229527
2013-05-03 00:00:00-04:00,3.8948516529750576
2013-05-06 00:00:00-04:00,3.911330856158056
2013-05-07 00:00:00-04:00,3.9851041880580786
2013-05-08 00:00:00-04:00,4.00126044269085
2013-05-09 00:00:00-04:00,3.98797405476968
2013-05-10 00:00:00-04:00,3.9694320855144305
2013-05-13 00:00:00-04:00,3.9700305366457487
2013-05-14 00:00:00-04:00,3.992300436153033
2013-05-15 00:00:00-04:00,3.977707400905924
2013-05-16 00:00:00-04:00,3.966733603286202
2013-05-17 00:00:00-04:00,3.981856160984565
2013-05-20 00:00:00-04:00,3.984514692761758
2013-05-21 00:00:00-04:00,3.9746585434497472
2013-05-22 00:00:00-04:00,3.949393787688743
2013-05-23 00:00:00-04:00,3.9529773886455684
2013-05-24 00:00:00-04:00,3.9486300258970517
2013-05-28 00:00:00-04:00,3.95084426935232
2013-05-29 00:00:00-04:00,3.963801457376287
2013-05-30 00:00:00-04:00,3.96274698495471
2013-05-31 00:00:00-04:00,3.935318873207403
2013-06-03 00:00:00-04:00,3.9556373136297127
2013-06-04 00:00:00-04:00,3.9587448467309128
2013-06-05 00:00:00-04:00,3.9308161733638585
2013-06-06 00:00:00-04:00,3.9471768422271336
2013-06-07 00:00:00-04:00,3.962671488240141
2013-06-10 00:00:00-04:00,3.954650376111615
2013-06-11 00:00:00-04:00,3.9353963143118604
2013-06-12 00:00:00-04:00,3.9394158265937413
2013-06-13 00:00:00-04:00,3.967558585580278
2013-06-14 00:00:00-04:00,3.955561497355735
2013-06-17 00:00:00-04:00,3.967558585580278
2013-06-18 00:00:00-04:00,3.9801546357920796
2013-06-19 00:00:00-04:00,3.9843667323531387
2013-06-20 00:00:00-04:00,3.9498524407689395
2013-06-21 00:00:00-04:00,3.94533825702866
2013-06-24 00:00:00-04:00,3.9221418486090394
2013-06-25 00:00:00-04:00,3.9434190252488572
2013-06-26 00:00:00-04:00,3.956396328112615
2013-06-27 00:00:00-04:00,3.9500051559762
2013-06-28 00:00:00-04:00,3.955105894347859
2013-07-01 00:00:00-04:00,3.9822993851412845
2013-07-02 00:00:00-04:00,4.0011150791202885
2013-07-03 00:00:00-04:00,4.003288303068751
2013-07-05 00:00:00-04:00,4.019227210764989
2013-07-08 00:00:00-04:00,4.014658253297695
2013-07-09 00:00:00-04:00,4.032106588324792
2013-07-10 00:00:00-04:00,4.032457957840804
2013-07-11 00:00:00-04:00,4.0414150309902235
2013-07-12 00:00:00-04:00,4.049462918040145
2013-07-15 00:00:00-04:00,4.042645422165398
2013-07-16 00:00:00-04:00,4.0497258782656855
2013-07-17 00:00:00-04:00,4.058472818744748
2013-07-18 00:00:00-04:00,4.066463843525121
2013-07-19 00:00:00-04:00,4.0777605464785855
2013-07-22 00:00:00-04:00,4.08326034583863
2013-07-23 00:00:00-04:00,4.077558844774938
2013-07-24 00:00:00-04:00,4.04633060696322
2013-07-25 00:00:00-04:00,4.068977846666654
2013-07-26 00:00:00-04:00,4.0578558011429395
2013-07-29 00:00:00-04:00,4.050762882916433
2013-07-30 00:00:00-04:00,4.046538972937864
2013-07-31 00:00:00-04:00,4.056138872291941
2013-08-01 00:00:00-04:00,4.100372272715328
2013-08-02 00:00:00-04:00,4.106665288986115
2013-08-05 00:00:00-04:00,4.114152001510443
2013-08-06 00:00:00-04:00,4.107906132932908
2013-08-07 00:00:00-04:00,4.127296804125064
2013-08-08 00:00:00-04:00,4.1422907773142175
2013-08-09 00:00:00-04:00,4.14392901835364
2013-08-12 00:00:00-04:00,4.143425085631398
2013-08-13 00:00:00-04:00,4.1401445026305534
2013-08-14 00:00:00-04:00,4.128448299962471
2013-08-15 00:00:00-04:00,4.129662300336268
2013-08-16 00:00:00-04:00,4.122612991780829
2013-08-19 00:00:00-04:00,4.104441087270706
2013-08-20 00:00:00-04:00,4.117001715959329
2013-08-21 00:00:00-04:00,4.098858589610216
2013-08-22 00:00:00-04:00,4.1155779360861375
2013-08-23 00:00:00-04:00,4.129853762757504
2013-08-26 00:00:00-04:00,4.1329775782033495
2013-08-27 00:00:00-04:00,4.127744181479696
2013-08-28 00:00:00-04:00,4.147824388559088
2013-08-29 00:00:00-04:00,4.1328502164283245
2013-08-30 00:00:00-04:00,4.132595383012588
2013-09-03 00:00:00-04:00,4.1413441523541445
2013-09-04 00:00:00-04:00,4.154512273413113
2013-09-05 00:00:00-04:00,4.1601029229684325
2013-09-06 00:00:00-04:00,4.1618979860647025
2013-09-09 00:00:00-04:00,4.173761463768262
2013-09-10 00:00:00-04:00,4.172844355643565
2013-09-11 00:00:00-04:00,4.1949232698658605
2013-09-12 00:00:00-04:00,4.199935611607719
2013-09-13 00:00:00-04:00,4.190666165512576
2013-09-16 00:00:00-04:00,4.186813615452226
2013-09-17 00:00:00-04:00,4.19862539366814
2013-09-18 00:00:00-04:00,4.222304115956221
2013-09-19 00:00:00-04:00,4.216114841336639
2013-09-20 00:00:00-04:00,4.205160294383137
2013-09-23 00:00:00-04:00,4.205101448581486
2013-09-24 00:00:00-04:00,4.224049096646408
2013-09-25 00:00:00-04:00,4.219914672991108
2013-09-26 00:00:00-04:00,4.224049096646408
2013-09-27 00:00:00-04:00,4.216114841336639
2013-09-30 00:00:00-04:00,4.207585323974581
2013-10-01 00:00:00-04:00,4.224397727686856
2013-10-02 00:00:00-04:00,4.225616757034207
2013-10-03 00:00:00-04:00,4.222362405648287
2013-10-04 00:00:00-04:00,4.2384720325640455
2013-10-07 00:00:00-04:00,4.228340222871346
2013-10-08 00:00:00-04:00,4.220381450008612
2013-10-09 00:00:00-04:00,4.220731249768351
2013-10-10 00:00:00-04:00,4.24001693253534
2013-10-11 00:00:00-04:00,4.263361347307505
2013-10-14 00:00:00-04:00,4.274859606628993
2013-10-15 00:00:00-04:00,4.2698601613101035
2013-10-16 00:00:00-04:00,4.282668929892969
2013-10-17 00:00:00-04:00,4.2777193742675825
2013-10-18 00:00:00-04:00,4.290864239677836
2013-10-21 00:00:00-04:00,4.29374356569307
2013-10-22 00:00:00-04:00,4.29823650017555
2013-10-23 00:00:00-04:00,4.261322643490021
2013-10-24 00:00:00-04:00,4.277939840230643
2013-10-25 00:00:00-04:00,4.288957831868713
2013-10-28 00:00:00-04:00,4.283381652162522
2013-10-29 00:00:00-04:00,4.297858743935228
2013-10-30 00:00:00-04:00,4.271858978928336
2013-10-31 00:00:00-04:00,4.261098267725859
2013-11-01 00:00:00-04:00,4.264344170837577
2013-11-04 00:00:00-05:00,4.2890667866828736
2013-11-05 00:00:00-05:00,4.268525784889222
2013-11-06 00:00:00-05:00,4.251184037327406
2013-11-07 00:00:00-05:00,4.222119714670752
2013-11-08 00:00:00-05:00,4.218499893031926
2013-11-11 00:00:00-05:00,4.2213618354334805
2013-11-12 00:00:00-05:00,4.19566260871316
2013-11-13 00:00:00-05:00,4.209687172192991
2013-11-14 00:00:00-05:00,4.210925273995058
2013-11-15 00:00:00-05:00,4.220953327599812
2013-11-18 00:00:00-05:00,4.204124352744378
2013-11-19 00:00:00-05:00,4.200378869691097
2013-11-20 00:00:00-05:00,4.194584798601491
2013-11-21 00:00:00-05:00,4.2088016475042895
2013-11-22 00:00:00-05:00,4.21375038075041
2013-11-25 00:00:00-05:00,4.208092730819841
2013-11-26 00:00:00-05:00,4.20815151434363
2013-11-27 00:00:00-05:00,4.19164495698188
2013-11-29 00:00:00-05:00,4.183015755649348
2013-12-02 00:00:00-05:00,4.183015755649348
2013-12-03 00:00:00-05:00,4.185920472292854
2013-12-04 00:00:00-05:00,4.195842188287184
2013-12-05 00:00:00-05:00,4.185316357013468
2013-12-06 00:00:00-05:00,4.152494020002502
2013-12-09 00:00:00-05:00,4.140550839154188
2013-12-10 00:00:00-05:00,4.147922258112551
2013-12-11 00:00:00-05:00,4.128591521699119
2013-12-12 00:00:00-05:00,4.141940800861624
2013-12-13 00:00:00-05:00,4.146100037054862
2013-12-16 00:00:00-05:00,4.150617797165162
2013-12-17 00:00:00-05:00,4.150054026705435
2013-12-18 00:00:00-05:00,4.164666455360463
2013-12-19 00:00:00-05:00,4.185013523720067
2013-12-20 00:00:00-05:00,4.204124352744378
2013-12-23 00:00:00-05:00,4.198769620028856
2013-12-24 00:00:00-05:00,4.20258035011018
2013-12-26 00:00:00-05:00,4.201153384656259
2013-12-27 00:00:00-05:00,4.2079153379665595
2013-12-30 00:00:00-05:00,4.197158005972996
2013-12-31 00:00:00-05:00,4.200081479505091
2014-01-02 00:00:00-05:00,4.1831372352995615
2014-01-03 00:00:00-05:00,4.180345413526849
2014-01-06 00:00:00-05:00,4.177058447469495
2014-01-07 00:00:00-05:00,4.194165317120923
2014-01-08 00:00:00-05:00,4.193745889851679
2014-01-09 00:00:00-05:00,4.195064466957573
2014-01-10 00:00:00-05:00,4.1939255837198886
2014-01-13 00:00:00-05:00,4.173638369873539
2014-01-14 00:00:00-05:00,4.204599012587528
2014-01-15 00:00:00-05:00,4.216099530571448
2014-01-16 00:00:00-05:00,4.214572230122338
2014-01-17 00:00:00-05:00,4.207847913619716
2014-01-21 00:00:00-05:00,4.209444671717284
2014-01-22 00:00:00-05:00,4.224051107039245
2014-01-23 00:00:00-05:00,4.209090220617708
2014-01-24 00:00:00-05:00,4.1873376944724345
2014-01-27 00:00:00-05:00,4.166399046710053
2014-01-28 00:00:00-05:00,4.197495951629137
2014-01-29 00:00:00-05:00,4.182007859759285
2014-01-30 00:00:00-05:00,4.190956440170554
2014-01-31 00:00:00-05:00,4.185584859060972
2014-02-03 00:00:00-05:00,4.164176484547965
2014-02-04 00:00:00-05:00,4.205596464858853
2014-02-05 00:00:00-05:00,4.199109655289745
2014-02-06 00:00:00-05:00,4.232921588144581
2014-02-07 00:00:00-05:00,4.2515067116690375
2014-02-10 00:00:00-05:00,4.238389902583506
2014-02-11 00:00:00-05:00,4.241427631130883
2014-02-12 00:00:00-05:00,4.243600141094139
2014-02-13 00:00:00-05:00,4.245653727951765
2014-02-14 00:00:00-05:00,4.254109834855683
2014-02-18 00:00:00-05:00,4.270698053537214
2014-02-19 00:00:00-05:00,4.26478927368406
2014-02-20 00:00:00-05:00,4.271309100331357
2014-02-21 00:00:00-05:00,4.259969707000057
2014-02-24 00:00:00-05:00,4.273362331911425
2014-02-25 00:00:00-05:00,4.293121584046224
2014-02-26 00:00:00-05:00,4.306295542102047
2014-02-27 00:00:00-05:00,4.311805084868809
2014-02-28 00:00:00-05:00,4.322152308764862
2014-03-03 00:00:00-05:00,4.321466294400734
2014-03-04 00:00:00-05:00,4.333386753515287
2014-03-05 00:00:00-05:00,4.327785660041678
2014-03-06 00:00:00-05:00,4.330773494188212
2014-03-07 00:00:00-05:00,4.324788770997473
2014-03-10 00:00:00-04:00,4.320197452655487
2014-03-11 00:00:00-04:00,4.301779541656364
2014-03-12 00:00:00-04:00,4.299244085446234
2014-03-13 00:00:00-04:00,4.287180119180713
2014-03-14 00:00:00-04:00,4.303771215236891
2014-03-17 00:00:00-04:00,4.310523507531455
2014-03-18 00:00:00-04:00,4.320778997969782
2014-03-19 00:00:00-04:00,4.312124634670459
2014-03-20 00:00:00-04:00,4.326945509353381
2014-03-21 00:00:00-04:00,4.333804270014929
2014-03-24 00:00:00-04:00,4.323102308945104
2014-03-25 00:00:00-04:00,4.333439115299585
2014-03-26 00:00:00-04:00,4.336306513533049
2014-03-27 00:00:00-04:00,4.343257045029849
2014-03-28 00:00:00-04:00,4.362201355448786
2014-03-31 00:00:00-04:00,4.35716746329912
2014-04-01 00:00:00-04:00,4.366250859950167
2014-04-02 00:00:00-04:00,4.36756325905514
2014-04-03 00:00:00-04:00,4.382982045890532
2014-04-04 00:00:00-04:00,4.374200277783742
2014-04-07 00:00:00-04:00,4.355586284627843
2014-04-08 00:00:00-04:00,4.363519464983403
2014-04-09 00:00:00-04:00,4.365947955143098
2014-04-10 00:00:00-04:00,4.357422604967182
2014-04-11 00:00:00-04:00,4.362708331830879
2014-04-14 00:00:00-04:00,4.377371230420116
2014-04-15 00:00:00-04:00,4.388810423094784
2014-04-16 00:00:00-04:00,4.387820839512874
2014-04-17 00:00:00-04:00,4.4019758365797585
2014-04-21 00:00:00-04:00,4.412462728640742
2014-04-22 00:00:00-04:00,4.400901692179168
2014-04-23 00:00:00-04:00,4.427323070487526
2014-04-24 00:00:00-04:00,4.411979717394956
2014-04-25 00:00:00-04:00,4.36812477454066
2014-04-28 00:00:00-04:00,4.358180607484228
2014-04-29 00:00:00-04:00,4.373964187204225
2014-04-30 00:00:00-04:00,4.357568915472444
2014-05-01 00:00:00-04:00,4.34854885210105
2014-05-02 00:00:00-04:00,4.347930251376636
2014-05-05 00:00:00-04:00,4.370243021334595
2014-05-06 00:00:00-04:00,4.41342795937636
2014-05-07 00:00:00-04:00,4.424559688910247
2014-05-08 00:00:00-04:00,4.394923383329973
2014-05-09 00:00:00-04:00,4.400315589479841
2014-05-12 00:00:00-04:00,4.413524717699974
2014-05-13 00:00:00-04:00,4.428179275171828
2014-05-14 00:00:00-04:00,4.416029963650954
2014-05-15 00:00:00-04:00,4.404802619762092
2014-05-16 00:00:00-04:00,4.4024638897545305
2014-05-19 00:00:00-04:00,4.400510714354762
2014-05-20 00:00:00-04:00,4.396494846822922
2014-05-21 00:00:00-04:00,4.418529592668946
2014-05-22 00:00:00-04:00,4.413910364154547
2014-05-23 00:00:00-04:00,4.416703842558037
2014-05-27 00:00:00-04:00,4.423986927619797
2014-05-28 00:00:00-04:00,4.428369493948124
2014-05-29 00:00:00-04:00,4.4423413653034505
2014-05-30 00:00:00-04:00,4.434151816376166
2014-06-02 00:00:00-04:00,4.430174179222791
2014-06-03 00:00:00-04:00,4.442247175980957
2014-06-04 00:00:00-04:00,4.4395249650330815
2014-06-05 00:00:00-04:00,4.453806083809981
2014-06-06 00:00:00-04:00,4.466880700276111
2014-06-09 00:00:00-04:00,4.4686171779115815
2014-06-10 00:00:00-04:00,4.461100761946465
2014-06-11 00:00:00-04:00,4.479425173137723
2014-06-12 00:00:00-04:00,4.487791121458758
2014-06-13 00:00:00-04:00,4.508975200185512
2014-06-16 00:00:00-04:00,4.509062889864896
2014-06-17 00:00:00-04:00,4.494576307490289
2014-06-18 00:00:00-04:00,4.504756352203787
2014-06-19 00:00:00-04:00,4.524465644615019
2014-06-20 00:00:00-04:00,4.5431166119199275
2014-06-23 00:00:00-04:00,4.538273417620064
2014-06-24 00:00:00-04:00,4.500165730115964
2014-06-25 00:00:00-04:00,4.526363940701771
2014-06-26 00:00:00-04:00,4.521178868934332
2014-06-27 00:00:00-04:00,4.5248108846249595
2014-06-30 00:00:00-04:00,4.533577955860964
2014-07-01 00:00:00-04:00,4.530921506162823
2014-07-02 00:00:00-04:00,4.52817228809366
2014-07-03 00:00:00-04:00,4.5326359166960595
2014-07-07 00:00:00-04:00,4.52386104282259
2014-07-08 00:00:00-04:00,4.5260189062326734
2014-07-09 00:00:00-04:00,4.53100753892476
2014-07-10 00:00:00-04:00,4.517185768276257
2014-07-11 00:00:00-04:00,4.50572484310865
2014-07-14 00:00:00-04:00,4.523515474676777
2014-07-15 00:00:00-04:00,4.5049564169134095
2014-07-16 00:00:00-04:00,4.53671073936091
2014-07-17 00:00:00-04:00,4.523385493596706
2014-07-18 00:00:00-04:00,4.527617331581437
2014-07-21 00:00:00-04:00,4.528564849403863
2014-07-22 00:00:00-04:00,4.532002581533512
2014-07-23 00:00:00-04:00,4.526841046345895
2014-07-24 00:00:00-04:00,4.528995048107285
2014-07-25 00:00:00-04:00,4.517047962744972
2014-07-28 00:00:00-04:00,4.5045157492171235
2014-07-29 00:00:00-04:00,4.511983665150302
2014-07-30 00:00:00-04:00,4.506629757923902
2014-07-31 00:00:00-04:00,4.469058650552192
2014-08-01 00:00:00-04:00,4.456183760718583
2014-08-04 00:00:00-04:00,4.490483376699645
2014-08-05 00:00:00-04:00,4.461630027488376
2014-08-06 00:00:00-04:00,4.443140943702867
2014-08-07 00:00:00-04:00,4.437687390056615
2014-08-08 00:00:00-04:00,4.453774040244932
2014-08-11 00:00:00-04:00,4.4585873350416145
2014-08-12 00:00:00-04:00,4.443609946329277
2014-08-13 00:00:00-04:00,4.440417659635358
2014-08-14 00:00:00-04:00,4.417399820885015
2014-08-15 00:00:00-04:00,4.437969959998275
2014-08-18 00:00:00-04:00,4.431729366538963
2014-08-19 00:00:00-04:00,4.446791627814879
2014-08-20 00:00:00-04:00,4.449124579392933
2014-08-21 00:00:00-04:00,4.448285325832326
2014-08-22 00:00:00-04:00,4.439665235380547
2014-08-25 00:00:00-04:00,4.455257618578079
2014-08-26 00:00:00-04:00,4.468693000206373
2014-08-27 00:00:00-04:00,4.461445591571539
2014-08-28 00:00:00-04:00,4.45941799055884
2014-08-29 00:00:00-04:00,4.473070872916723
2014-09-02 00:00:00-04:00,4.453124692772794
2014-09-03 00:00:00-04:00,4.453403023493651
2014-09-04 00:00:00-04:00,4.423921356838699
2014-09-05 00:00:00-04:00,4.429355611036696
2014-09-08 00:00:00-04:00,4.392853998961143
2014-09-09 00:00:00-04:00,4.391867277522834
2014-09-10 00:00:00-04:00,4.398753405880277
2014-09-11 00:00:00-04:00,4.408993568095443
2014-09-12 00:00:00-04:00,4.39196586129712
2014-09-15 00:00:00-04:00,4.397772491224046
2014-09-16 00:00:00-04:00,4.42973592897871
2014-09-17 00:00:00-04:00,4.429450476707478
2014-09-18 00:00:00-04:00,4.427452304331516
2014-09-19 00:00:00-04:00,4.421624399906559
2014-09-22 00:00:00-04:00,4.396102894154202
2014-09-23 00:00:00-04:00,4.387217530113569
2014-09-24 00:00:00-04:00,4.400026858413402
2014-09-25 00:00:00-04:00,4.382446068031198
2014-09-26 00:00:00-04:00,4.397478141787455
2014-09-29 00:00:00-04:00,4.397379724308506
2014-09-30 00:00:00-04:00,4.369004090240944
2014-10-01 00:00:00-04:00,4.346845420205927
2014-10-02 00:00:00-04:00,4.34901144275296
2014-10-03 00:00:00-04:00,4.34395036984431
2014-10-06 00:00:00-04:00,4.328505788373393
2014-10-07 00:00:00-04:00,4.312819333776381
2014-10-08 00:00:00-04:00,4.322916873253908
2014-10-09 00:00:00-04:00,4.295036099585754
2014-10-10 00:00:00-04:00,4.271601064620905
2014-10-13 00:00:00-04:00,4.20163790877047
2014-10-14 00:00:00-04:00,4.202592674167151
2014-10-15 00:00:00-04:00,4.254954742199876
2014-10-16 00:00:00-04:00,4.289510228548143
2014-10-17 00:00:00-04:00,4.288962123301146
2014-10-20 00:00:00-04:00,4.305703657448763
2014-10-21 00:00:00-04:00,4.340349186123195
2014-10-22 00:00:00-04:00,4.298237226093544
2014-10-23 00:00:00-04:00,4.312579642995759
2014-10-24 00:00:00-04:00,4.298563213717611
2014-10-27 00:00:00-04:00,4.257899236736466
2014-10-28 00:00:00-04:00,4.292027149605911
2014-10-29 00:00:00-04:00,4.309684510423443
2014-10-30 00:00:00-04:00,4.299865067234637
2014-10-31 00:00:00-04:00,4.330091261189332
2014-11-03 00:00:00-05:00,4.311722214373963
2014-11-04 00:00:00-05:00,4.278604330920248
2014-11-05 00:00:00-05:00,4.341077217173348
2014-11-06 00:00:00-05:00,4.37050468927041
2014-11-07 00:00:00-05:00,4.376348196933336
2014-11-10 00:00:00-05:00,4.365744804425988
2014-11-11 00:00:00-05:00,4.368279293156496
2014-11-12 00:00:00-05:00,4.356155640419511
2014-11-13 00:00:00-05:00,4.338472548509637
2014-11-14 00:00:00-05:00,4.362286663724689
2014-11-17 00:00:00-05:00,4.343675317351245
2014-11-18 00:00:00-05:00,4.357282529497261
2014-11-19 00:00:00-05:00,4.364017131816226
2014-11-20 00:00:00-05:00,4.375242601000199
2014-11-21 00:00:00-05:00,4.398108610237181
2014-11-24 00:00:00-05:00,4.376448610195855
2014-11-25 00:00:00-05:00,4.347715017632798
2014-11-26 00:00:00-05:00,4.319727121200136
2014-11-28 00:00:00-05:00,4.238372837196927
2014-12-01 00:00:00-05:00,4.244351427469203
2014-12-02 00:00:00-05:00,4.278825447770617
2014-12-03 00:00:00-05:00,4.295300729684042
2014-12-04 00:00:00-05:00,4.308287490392296
2014-12-05 00:00:00-05:00,4.283796479717228
2014-12-08 00:00:00-05:00,4.255181799690087
2014-12-09 00:00:00-05:00,4.2660080555472435
2014-12-10 00:00:00-05:00,4.239179436230709
2014-12-11 00:00:00-05:00,4.239985934800701
2014-12-12 00:00:00-05:00,4.23432850639099
2014-12-15 00:00:00-05:00,4.222330967675991
2014-12-16 00:00:00-05:00,4.223853845907762
2014-12-17 00:00:00-05:00,4.288085032405282
2014-12-18 00:00:00-05:00,4.302355782889486
2014-12-19 00:00:00-05:00,4.32977539258724
2014-12-22 00:00:00-05:00,4.330196227233415
2014-12-23 00:00:00-05:00,4.344297842415748
2014-12-24 00:00:00-05:00,4.319514663838631
2014-12-26 00:00:00-05:00,4.317066068107458
2014-12-29 00:00:00-05:00,4.322487193965539
2014-12-30 00:00:00-05:00,4.305056525961242
2014-12-31 00:00:00-05:00,4.298237226093544
2015-01-02 00:00:00-05:00,4.30008174012645
2015-01-05 00:00:00-05:00,4.23791119058383
2015-01-06 00:00:00-05:00,4.209001673245231
2015-01-07 00:00:00-05:00,4.202688294559287
2015-01-08 00:00:00-05:00,4.240215976651636
2015-01-09 00:00:00-05:00,4.246869623351276
2015-01-12 00:00:00-05:00,4.212558029137354
2015-01-13 00:00:00-05:00,4.219044785509427
2015-01-14 00:00:00-05:00,4.252043040111304
2015-01-15 00:00:00-05:00,4.238156136510268
2015-01-16 00:00:00-05:00,4.280913335284445
2015-01-20 00:00:00-05:00,4.270002365580003
2015-01-21 00:00:00-05:00,4.283456695871833
2015-01-22 00:00:00-05:00,4.28146681780003
2015-01-23 00:00:00-05:00,4.286214037953604
2015-01-26 00:00:00-05:00,4.303034078129391
2015-01-27 00:00:00-05:00,4.310264617720612
2015-01-28 00:00:00-05:00,4.256137755669015
2015-01-29 00:00:00-05:00,4.265289697307165
2015-01-30 00:00:00-05:00,4.266638457020785
2015-02-02 00:00:00-05:00,4.30508979368438
2015-02-03 00:00:00-05:00,4.34523733518552
2015-02-04 00:00:00-05:00,4.333539826434408
2015-02-05 00:00:00-05:00,4.343990789050928
2015-02-06 00:00:00-05:00,4.33982338216037
2015-02-09 00:00:00-05:00,4.341492032317864
2015-02-10 00:00:00-05:00,4.334275030707352
2015-02-11 00:00:00-05:00,4.312412592080931
2015-02-12 00:00:00-05:00,4.329434395698183
2015-02-13 00:00:00-05:00,4.351550791824586
2015-02-17 00:00:00-05:00,4.347104492592922
2015-02-18 00:00:00-05:00,4.334799560224163
2015-02-19 00:00:00-05:00,4.318829884670916
2015-02-20 00:00:00-05:00,4.289403205251433
2015-02-23 00:00:00-05:00,4.298692894893358
2015-02-24 00:00:00-05:00,4.295205662307827
2015-02-25 00:00:00-05:00,4.310587220824118
2015-02-26 00:00:00-05:00,4.2789179618340105
2015-02-27 00:00:00-05:00,4.274358639937578
2015-03-02 00:00:00-05:00,4.266975550140546
2015-03-03 00:00:00-05:00,4.281577540818288
2015-03-04 00:00:00-05:00,4.2829045245375195
2015-03-05 00:00:00-05:00,4.272908797849863
2015-03-06 00:00:00-05:00,4.261458428251371
2015-03-09 00:00:00-04:00,4.251814834220809
2015-03-10 00:00:00-04:00,4.234219170033276
2015-03-11 00:00:00-04:00,4.238387480417339
2015-03-12 00:00:00-04:00,4.228635109263275
2015-03-13 00:00:00-04:00,4.224894110559483
2015-03-16 00:00:00-04:00,4.253864971922149
2015-03-17 00:00:00-04:00,4.241271643770922
2015-03-18 00:00:00-04:00,4.284781295080862
2015-03-19 00:00:00-04:00,4.272238807522477
2015-03-20 00:00:00-04:00,4.285001996217738
2015-03-23 00:00:00-04:00,4.2663014643665615
2015-03-24 00:00:00-04:00,4.264502178215767
2015-03-25 00:00:00-04:00,4.277030144412012
2015-03-26 00:00:00-04:00,4.292472514322788
2015-03-27 00:00:00-04:00,4.283677689510641
2015-03-30 00:00:00-04:00,4.300974127901181
2015-03-31 00:00:00-04:00,4.296078195484248
2015-04-01 00:00:00-04:00,4.29093903736892
2015-04-02 00:00:00-04:00,4.307141600290735
2015-04-06 00:00:00-04:00,4.330172422503314
2015-04-07 00:00:00-04:00,4.323827939310152
2015-04-08 00:00:00-04:00,4.3213853353387695
2015-04-09 00:00:00-04:00,4.3389879122097135
2015-04-10 00:00:00-04:00,4.348140210131562
2015-04-13 00:00:00-04:00,4.328273451426422
2015-04-14 00:00:00-04:00,4.348569462249202
2015-04-15 00:00:00-04:00,4.364000041980299
2015-04-16 00:00:00-04:00,4.364408370330891
2015-04-17 00:00:00-04:00,4.356520030260394
2015-04-20 00:00:00-04:00,4.361751834764529
2015-04-21 00:00:00-04:00,4.349916089934298
2015-04-22 00:00:00-04:00,4.361342322650093
2015-04-23 00:00:00-04:00,4.36715970182336
2015-04-24 00:00:00-04:00,4.351261004998772
2015-04-27 00:00:00-04:00,4.357856489562251
2015-04-28 00:00:00-04:00,4.369091138801584
2015-04-29 00:00:00-04:00,4.382007656374898
2015-04-30 00:00:00-04:00,4.374055323235101
2015-05-01 00:00:00-04:00,4.373550221266701
2015-05-04 00:00:00-04:00,4.3784922780538205
2015-05-05 00:00:00-04:00,4.328463832858005
2015-05-06 00:00:00-04:00,4.3341594872339915
2015-05-07 00:00:00-04:00,4.31740245719864
2015-05-08 00:00:00-04:00,4.31740245719864
2015-05-11 00:00:00-04:00,4.296981222191132
2015-05-12 00:00:00-04:00,4.316439284899204
2015-05-13 00:00:00-04:00,4.296872399426963
2015-05-14 00:00:00-04:00,4.287329002971947
2015-05-15 00:00:00-04:00,4.284459299347914
2015-05-18 00:00:00-04:00,4.299052928550133
2015-05-19 00:00:00-04:00,4.282135187534143
2015-05-20 00:00:00-04:00,4.284348684659243
2015-05-21 00:00:00-04:00,4.295670200078489
2015-05-22 00:00:00-04:00,4.282135187534143
2015-05-26 00:00:00-04:00,4.269761150447741
2015-05-27 00:00:00-04:00,4.268077532949385
2015-05-28 00:00:00-04:00,4.269761150447741
2015-05-29 00:00:00-04:00,4.264587875780319
2015-06-01 00:00:00-04:00,4.2653770420833625
2015-06-02 00:00:00-04:00,4.276691761930003
2015-06-03 00:00:00-04:00,4.268189748355203
2015-06-04 00:00:00-04:00,4.249707254022439
2015-06-05 00:00:00-04:00,4.275688867233417
2015-06-08 00:00:00-04:00,4.269312491332238
2015-06-09 00:00:00-04:00,4.269087979496409
2015-06-10 00:00:00-04:00,4.283795848451389
2015-06-11 00:00:00-04:00,4.286447015116285
2015-06-12 00:00:00-04:00,4.274014358592266
2015-06-15 00:00:00-04:00,4.270546139702449
2015-06-16 00:00:00-04:00,4.28013897959125
2015-06-17 00:00:00-04:00,4.268302164877771
2015-06-18 00:00:00-04:00,4.265940045228713
2015-06-19 00:00:00-04:00,4.259841047754215
2015-06-22 00:00:00-04:00,4.257686078869907
2015-06-23 00:00:00-04:00,4.265715203397673
2015-06-24 00:00:00-04:00,4.260633752157984
2015-06-25 00:00:00-04:00,4.252792244950834
2015-06-26 00:00:00-04:00,4.257459049254419
2015-06-29 00:00:00-04:00,4.236690633314218
2015-06-30 00:00:00-04:00,4.251650897897481
2015-07-01 00:00:00-04:00,4.231110080863695
2015-07-02 00:00:00-04:00,4.229943480044111
2015-07-06 00:00:00-04:00,4.223150381487041
2015-07-07 00:00:00-04:00,4.2421253793877325
2015-07-08 00:00:00-04:00,4.216073636832148
2015-07-09 00:00:00-04:00,4.22561519584188
2015-07-10 00:00:00-04:00,4.216665760301954
2015-07-13 00:00:00-04:00,4.2127545940198186
2015-07-14 00:00:00-04:00,4.224794563520747
2015-07-15 00:00:00-04:00,4.203261824983185
2015-07-16 00:00:00-04:00,4.1929993714866
2015-07-17 00:00:00-04:00,4.169671059744368
2015-07-20 00:00:00-04:00,4.137225044512052
2015-07-21 00:00:00-04:00,4.129495906904907
2015-07-22 00:00:00-04:00,4.113330510912228
2015-07-23 00:00:00-04:00,4.116349134889844
2015-07-24 00:00:00-04:00,4.101032960366213
2015-07-27 00:00:00-04:00,4.074472978080679
2015-07-28 00:00:00-04:00,4.123269281774079
2015-07-29 00:00:00-04:00,4.134783609892414
2015-07-30 00:00:00-04:00,4.145022067100048
2015-07-31 00:00:00-04:00,4.1276836121259075
2015-08-03 00:00:00-04:00,4.117919992208045
2015-08-04 00:00:00-04:00,4.121837146761527
2015-08-05 00:00:00-04:00,4.113330510912228
2015-08-06 00:00:00-04:00,4.134011715364985
2015-08-07 00:00:00-04:00,4.08223064652447
2015-08-10 00:00:00-04:00,4.115693576034503
2015-08-11 00:00:00-04:00,4.129107895828216
2015-08-12 00:00:00-04:00,4.162565108633084
2015-08-13 00:00:00-04:00,4.159432725522148
2015-08-14 00:00:00-04:00,4.162565108633084
2015-08-17 00:00:00-04:00,4.16356549268969
2015-08-18 00:00:00-04:00,4.168552692410899
2015-08-19 00:00:00-04:00,4.126127844540368
2015-08-20 00:00:00-04:00,4.121706935266636
2015-08-21 00:00:00-04:00,4.09703367453794
2015-08-24 00:00:00-04:00,4.019281491444227
2015-08-25 00:00:00-04:00,4.006201730392993
2015-08-26 00:00:00-04:00,4.043952802997098
2015-08-27 00:00:00-04:00,4.109380452525942
2015-08-28 00:00:00-04:00,4.129237024456074
2015-08-31 00:00:00-04:00,4.142089437622751
2015-09-01 00:00:00-04:00,4.112410131580099
2015-09-02 00:00:00-04:00,4.134397706565292
2015-09-03 00:00:00-04:00,4.131046386148763
2015-09-04 00:00:00-04:00,4.1237897071860425
2015-09-08 00:00:00-04:00,4.1337543051014745
2015-09-09 00:00:00-04:00,4.124309923597675
2015-09-10 00:00:00-04:00,4.138891665565312
2015-09-11 00:00:00-04:00,4.1271656404632635
2015-09-14 00:00:00-04:00,4.117789393830999
2015-09-15 00:00:00-04:00,4.1284609578791995
2015-09-16 00:00:00-04:00,4.162690404362344
2015-09-17 00:00:00-04:00,4.1591817772258315
2015-09-18 00:00:00-04:00,4.115562313087152
2015-09-21 00:00:00-04:00,4.118965964594794
2015-09-22 00:00:00-04:00,4.10183091441408
2015-09-23 00:00:00-04:00,4.072421153569942
2015-09-24 00:00:00-04:00,4.075428733376379
2015-09-25 00:00:00-04:00,4.068992584399888
2015-09-28 00:00:00-04:00,4.021732973355617
2015-09-29 00:00:00-04:00,4.031764571130594
2015-09-30 00:00:00-04:00,4.069129973966394
2015-10-01 00:00:00-04:00,4.079922855659336
2015-10-02 00:00:00-04:00,4.125998313777539
2015-10-05 00:00:00-04:00,4.1715328581388915
2015-10-06 00:00:00-04:00,4.198325074905189
2015-10-07 00:00:00-04:00,4.209488643457968
2015-10-08 00:00:00-04:00,4.2477815300375
2015-10-09 00:00:00-04:00,4.250764589830799
2015-10-12 00:00:00-04:00,4.236110142168444
2015-10-13 00:00:00-04:00,4.227353856729176
2015-10-14 00:00:00-04:00,4.235171730287602
2015-10-15 00:00:00-04:00,4.250902033169618
2015-10-16 00:00:00-04:00,4.2550250196741075
2015-10-19 00:00:00-04:00,4.2237992180239
2015-10-20 00:00:00-04:00,4.224506691829834
2015-10-21 00:00:00-04:00,4.211580392343933
2015-10-22 00:00:00-04:00,4.235404869845213
2015-10-23 00:00:00-04:00,4.231083020226684
2015-10-26 00:00:00-04:00,4.2069142889676705
2015-10-27 00:00:00-04:00,4.1986053446718286
2015-10-28 00:00:00-04:00,4.223563468389812
2015-10-29 00:00:00-04:00,4.232136291783881
2015-10-30 00:00:00-04:00,4.235987315506341
2015-11-02 00:00:00-05:00,4.23854667031504
2015-11-03 00:00:00-05:00,4.265823292321862
2015-11-04 00:00:00-05:00,4.243183526251816
2015-11-05 00:00:00-05:00,4.243183526251816
2015-11-06 00:00:00-05:00,4.2292085099243755
2015-11-09 00:00:00-05:00,4.230380851268016
2015-11-10 00:00:00-05:00,4.244454846632691
2015-11-11 00:00:00-05:00,4.2060745203525345
2015-11-12 00:00:00-05:00,4.186317329987923
2015-11-13 00:00:00-05:00,4.193148904059346
2015-11-16 00:00:00-05:00,4.223563468389812
2015-11-17 00:00:00-05:00,4.201985419648814
2015-11-18 00:00:00-05:00,4.227800262030415
2015-11-19 00:00:00-05:00,4.198000707258786
2015-11-20 00:00:00-05:00,4.197758337102194
2015-11-23 00:00:00-05:00,4.197032480435039
2015-11-24 00:00:00-05:00,4.227683087407545
2015-11-25 00:00:00-05:00,4.208591600092006
2015-11-27 00:00:00-05:00,4.190348891548122
2015-11-30 00:00:00-05:00,4.207393759194639
2015-12-01 00:00:00-05:00,4.214797483431797
2015-12-02 00:00:00-05:00,4.176105106969731
2015-12-03 00:00:00-05:00,4.177711324249179
2015-12-04 00:00:00-05:00,4.171518615028657
2015-12-07 00:00:00-05:00,4.116616038297021
2015-12-08 00:00:00-05:00,4.128618738268273
2015-12-09 00:00:00-05:00,4.1449544967228755
2015-12-10 00:00:00-05:00,4.142399612356397
2015-12-11 00:00:00-05:00,4.099406547657681
2015-12-14 00:00:00-05:00,4.125371672791067
2015-12-15 00:00:00-05:00,4.1310798483729485
2015-12-16 00:00:00-05:00,4.111484154542795
2015-12-17 00:00:00-05:00,4.077946567304923
2015-12-18 00:00:00-05:00,4.052103871975551
2015-12-21 00:00:00-05:00,4.035445828571878
2015-12-22 00:00:00-05:00,4.0291632021293635
2015-12-23 00:00:00-05:00,4.083252952815117
2015-12-24 00:00:00-05:00,4.079581969848395
2015-12-28 00:00:00-05:00,4.03885655477262
2015-12-29 00:00:00-05:00,4.0473324870304435
2015-12-30 00:00:00-05:00,4.040557498282509
2015-12-31 00:00:00-05:00,4.043103735276641
2016-01-04 00:00:00-05:00,4.027299239572078
2016-01-05 00:00:00-05:00,4.033736498438899
2016-01-06 00:00:00-05:00,3.9928434914205795
2016-01-07 00:00:00-05:00,3.9648251478092753
2016-01-08 00:00:00-05:00,3.9657413659975176
2016-01-11 00:00:00-05:00,3.937099172738967
2016-01-12 00:00:00-05:00,3.925249886327638
2016-01-13 00:00:00-05:00,3.94759520872088
2016-01-14 00:00:00-05:00,3.9644386174744266
2016-01-15 00:00:00-05:00,3.928717889052895
2016-01-19 00:00:00-05:00,3.8966054624106325
2016-01-20 00:00:00-05:00,3.8843961873263226
2016-01-21 00:00:00-05:00,3.9410287088146787
2016-01-22 00:00:00-05:00,3.9760171164690563
2016-01-25 00:00:00-05:00,3.9065591156637853
2016-01-26 00:00:00-05:00,3.976168463982807
2016-01-27 00:00:00-05:00,3.976774125653772
2016-01-28 00:00:00-05:00,4.014789338790409
2016-01-29 00:00:00-05:00,4.0490209492198534
2016-02-01 00:00:00-05:00,4.021469385584029
2016-02-02 00:00:00-05:00,3.993137315150831
2016-02-03 00:00:00-05:00,4.037265266561395
2016-02-04 00:00:00-05:00,4.012016912682004
2016-02-05 00:00:00-05:00,3.9916475348570346
2016-02-08 00:00:00-05:00,4.011870895033492
2016-02-09 00:00:00-05:00,3.969482438342615
2016-02-10 00:00:00-05:00,3.9725274884794954
2016-02-11 00:00:00-05:00,3.969025279997016
2016-02-12 00:00:00-05:00,4.001145577213828
2016-02-16 00:00:00-05:00,4.003948334888548
2016-02-17 00:00:00-05:00,4.04620085653382
2016-02-18 00:00:00-05:00,4.026810701239916
2016-02-19 00:00:00-05:00,4.030403329035409
2016-02-22 00:00:00-05:00,4.065637936473287
2016-02-23 00:00:00-05:00,4.005861155061856
2016-02-24 00:00:00-05:00,4.0276739819920335
2016-02-25 00:00:00-05:00,4.0128931229007065
2016-02-26 00:00:00-05:00,3.9981871926500205
2016-02-29 00:00:00-05:00,3.956438803049854
2016-03-01 00:00:00-05:00,3.9607543852014686
2016-03-02 00:00:00-05:00,3.9907522899037806
2016-03-03 00:00:00-05:00,4.023782483357646
2016-03-04 00:00:00-05:00,4.0544974627443136
2016-03-07 00:00:00-05:00,4.10979478596396
2016-03-08 00:00:00-05:00,4.042522491325291
2016-03-09 00:00:00-05:00,4.066330337151987
2016-03-10 00:00:00-05:00,4.066468289072235
2016-03-11 00:00:00-05:00,4.1059448418455275
2016-03-14 00:00:00-04:00,4.100610178140229
2016-03-15 00:00:00-04:00,4.084840298222724
2016-03-16 00:00:00-04:00,4.10408056721521
2016-03-17 00:00:00-04:00,4.123350006213898
2016-03-18 00:00:00-04:00,4.111912235791542
2016-03-21 00:00:00-04:00,4.116266412710619
2016-03-22 00:00:00-04:00,4.115475977611905
2016-03-23 00:00:00-04:00,4.094708481692805
2016-03-24 00:00:00-04:00,4.094170342538269
2016-03-28 00:00:00-04:00,4.097261218338646
2016-03-29 00:00:00-04:00,4.109529624826614
2016-03-30 00:00:00-04:00,4.085519277918558
2016-03-31 00:00:00-04:00,4.0707491871198105
2016-04-01 00:00:00-04:00,4.063280929305833
2016-04-04 00:00:00-04:00,4.038973620479814
2016-04-05 00:00:00-04:00,4.042239545676391
2016-04-06 00:00:00-04:00,4.051832978664071
2016-04-07 00:00:00-04:00,4.0550573744880145
2016-04-08 00:00:00-04:00,4.082936415859196
2016-04-11 00:00:00-04:00,4.090259590262339
2016-04-12 00:00:00-04:00,4.136466370797626
2016-04-13 00:00:00-04:00,4.142113743571978
2016-04-14 00:00:00-04:00,4.142499226032346
2016-04-15 00:00:00-04:00,4.115139528049363
2016-04-18 00:00:00-04:00,4.137732658457953
2016-04-19 00:00:00-04:00,4.159321319877698
2016-04-20 00:00:00-04:00,4.162349872120348
2016-04-21 00:00:00-04:00,4.159699929330016
2016-04-22 00:00:00-04:00,4.181690273320329
2016-04-25 00:00:00-04:00,4.167251273425542
2016-04-26 00:00:00-04:00,4.204415873209066
2016-04-27 00:00:00-04:00,4.225099088214345
2016-04-28 00:00:00-04:00,4.193606118420341
2016-04-29 00:00:00-04:00,4.202480839197106
2016-05-02 00:00:00-04:00,4.204415873209066
2016-05-03 00:00:00-04:00,4.178099992475918
2016-05-04 00:00:00-04:00,4.161971908297597
2016-05-05 00:00:00-04:00,4.185883342207131
2016-05-06 00:00:00-04:00,4.15361837790486
2016-05-09 00:00:00-04:00,4.153109833585352
2016-05-10 00:00:00-04:00,4.166875394490786
2016-05-11 00:00:00-04:00,4.174248053099058
2016-05-12 00:00:00-04:00,4.1764863179812
2016-05-13 00:00:00-04:00,4.153237038869254
2016-05-16 00:00:00-04:00,4.1788439239282615
2016-05-17 00:00:00-04:00,4.189690807604748
2016-05-18 00:00:00-04:00,4.175367929028967
2016-05-19 00:00:00-04:00,4.171255257505997
2016-05-20 00:00:00-04:00,4.181690273320329
2016-05-23 00:00:00-04:00,4.186006446355542
2016-05-24 00:00:00-04:00,4.200906633859539
2016-05-25 00:00:00-04:00,4.208033262889834
2016-05-26 00:00:00-04:00,4.198600532852902
2016-05-27 00:00:00-04:00,4.189690807604748
2016-05-31 00:00:00-04:00,4.1871130069178415
2016-06-01 00:00:00-04:00,4.179587302357984
2016-06-02 00:00:00-04:00,4.1763622704833825
2016-06-03 00:00:00-04:00,4.166624296289668
2016-06-06 00:00:00-04:00,4.186006446355542
2016-06-07 00:00:00-04:00,4.235809173487388
2016-06-08 00:00:00-04:00,4.235107113069212
2016-06-09 00:00:00-04:00,4.225927274335666
2016-06-10 00:00:00-04:00,4.189568156209741
2016-06-13 00:00:00-04:00,4.187481820196658
2016-06-14 00:00:00-04:00,4.2068289575661915
2016-06-15 00:00:00-04:00,4.2003000699044435
2016-06-16 00:00:00-04:00,4.172503501148977
2016-06-17 00:00:00-04:00,4.1813192008829425
2016-06-20 00:00:00-04:00,4.209356382409827
2016-06-21 00:00:00-04:00,4.229821115068767
2016-06-22 00:00:00-04:00,4.214272828500457
2016-06-23 00:00:00-04:00,4.224980927128737
2016-06-24 00:00:00-04:00,4.183418653002127
2016-06-27 00:00:00-04:00,4.152474164213715
2016-06-28 00:00:00-04:00,4.191894926140771
2016-06-29 00:00:00-04:00,4.212357131537958
2016-06-30 00:00:00-04:00,4.212117538329912
2016-07-01 00:00:00-04:00,4.228289064797111
2016-07-05 00:00:00-04:00,4.204174483454518
2016-07-06 00:00:00-04:00,4.204174483454518
2016-07-07 00:00:00-04:00,4.190181147270414
2016-07-08 00:00:00-04:00,4.201512144712244
2016-07-11 00:00:00-04:00,4.2058645817013876
2016-07-12 00:00:00-04:00,4.232526303782165
2016-07-13 00:00:00-04:00,4.219114601905802
2016-07-14 00:00:00-04:00,4.22849334781309
2016-07-15 00:00:00-04:00,4.222211136305774
2016-07-18 00:00:00-04:00,4.212052770498546
2016-07-19 00:00:00-04:00,4.197411533273279
2016-07-20 00:00:00-04:00,4.198264335614024
2016-07-21 00:00:00-04:00,4.190684642146448
2016-07-22 00:00:00-04:00,4.184406536024443
2016-07-25 00:00:00-04:00,4.156482846677394
2016-07-26 00:00:00-04:00,4.177840468217862
2016-07-27 00:00:00-04:00,4.169477517599962
2016-07-28 00:00:00-04:00,4.170980288638454
2016-07-29 00:00:00-04:00,4.193258332065446
2016-08-01 00:00:00-04:00,4.1558476444907555
2016-08-02 00:00:00-04:00,4.17085508504258
2016-08-03 00:00:00-04:00,4.201425779850352
2016-08-04 00:00:00-04:00,4.223874176996186
2016-08-05 00:00:00-04:00,4.29179045911394
2016-08-08 00:00:00-04:00,4.297320905628539
2016-08-09 00:00:00-04:00,4.294227316391875
2016-08-10 00:00:00-04:00,4.283548887726938
2016-08-11 00:00:00-04:00,4.293120437467197
2016-08-12 00:00:00-04:00,4.303259455242288
2016-08-15 00:00:00-04:00,4.296106567063181
2016-08-16 00:00:00-04:00,4.292898810326951
2016-08-17 00:00:00-04:00,4.292455512940095
2016-08-18 00:00:00-04:00,4.309054005276471
2016-08-19 00:00:00-04:00,4.309380998687821
2016-08-22 00:00:00-04:00,4.3029303504399765
2016-08-23 00:00:00-04:00,4.303369235950275
2016-08-24 00:00:00-04:00,4.2980924468774475
2016-08-25 00:00:00-04:00,4.292788082603807
2016-08-26 00:00:00-04:00,4.29201201895351
2016-08-29 00:00:00-04:00,4.302601240543
2016-08-30 00:00:00-04:00,4.290791630422422
2016-08-31 00:00:00-04:00,4.273093851827658
2016-09-01 00:00:00-04:00,4.273771665161543
2016-09-02 00:00:00-04:00,4.277829137041971
2016-09-06 00:00:00-04:00,4.342290285673596
2016-09-07 00:00:00-04:00,4.336897625090953
2016-09-08 00:00:00-04:00,4.348597369093397
2016-09-09 00:00:00-04:00,4.319033143321193
2016-09-12 00:00:00-04:00,4.3225889128786195
2016-09-13 00:00:00-04:00,4.294448649327171
2016-09-14 00:00:00-04:00,4.27264189821621
2016-09-15 00:00:00-04:00,4.300514531253019
2016-09-16 00:00:00-04:00,4.300734270250737
2016-09-19 00:00:00-04:00,4.290569904499413
2016-09-20 00:00:00-04:00,4.294448649327171
2016-09-21 00:00:00-04:00,4.328379715299441
2016-09-22 00:00:00-04:00,4.318601690057108
2016-09-23 00:00:00-04:00,4.287232545579304
2016-09-26 00:00:00-04:00,4.281757834925911
2016-09-27 00:00:00-04:00,4.273884837334634
2016-09-28 00:00:00-04:00,4.333073326436987
2016-09-29 00:00:00-04:00,4.344607573632328
2016-09-30 00:00:00-04:00,4.3619214503967445
2016-10-03 00:00:00-04:00,4.355697714350613
2016-10-04 00:00:00-04:00,4.345553798225521
2016-10-05 00:00:00-04:00,4.368825428561384
2016-10-06 00:00:00-04:00,4.366358007755144
2016-10-07 00:00:00-04:00,4.359125303038579
2016-10-10 00:00:00-04:00,4.367900593077691
2016-10-11 00:00:00-04:00,4.355073332376641
2016-10-12 00:00:00-04:00,4.357672893359647
2016-10-13 00:00:00-04:00,4.351076783967242
2016-10-14 00:00:00-04:00,4.34033864690183
2016-10-17 00:00:00-04:00,4.332902452286084
2016-10-18 00:00:00-04:00,4.325946704720527
2016-10-19 00:00:00-04:00,4.346458711557024
2016-10-20 00:00:00-04:00,4.344879499541074
2016-10-21 00:00:00-04:00,4.333967885732511
2016-10-24 00:00:00-04:00,4.331194812160946
2016-10-25 00:00:00-04:00,4.320995444423726
2016-10-26 00:00:00-04:00,4.3152593744171615
2016-10-27 00:00:00-04:00,4.31090931030172
2016-10-28 00:00:00-04:00,4.300609819487844
2016-10-31 00:00:00-04:00,4.296416004030649
2016-11-01 00:00:00-04:00,4.304566548594863
2016-11-02 00:00:00-04:00,4.302150655107379
2016-11-03 00:00:00-04:00,4.314608299462719
2016-11-04 00:00:00-04:00,4.311562797246843
2016-11-07 00:00:00-05:00,4.329163163372865
2016-11-08 00:00:00-05:00,4.328413624783761
2016-11-09 00:00:00-05:00,4.329163163372865
2016-11-10 00:00:00-05:00,4.320563620198977
2016-11-11 00:00:00-05:00,4.307305423333029
2016-11-14 00:00:00-05:00,4.321103498047622
2016-11-15 00:00:00-05:00,4.34129100355448
2016-11-16 00:00:00-05:00,4.348140407440486
2016-11-17 00:00:00-05:00,4.317427585174558
2016-11-18 00:00:00-05:00,4.326161531414206
2016-11-21 00:00:00-05:00,4.352855218097439
2016-11-22 00:00:00-05:00,4.3486656044569125
2016-11-23 00:00:00-05:00,4.366661369464293
2016-11-25 00:00:00-05:00,4.3560903610838775
2016-11-28 00:00:00-05:00,4.32959139132092
2016-11-29 00:00:00-05:00,4.31851064152035
2016-11-30 00:00:00-05:00,4.422008402034562
2016-12-01 00:00:00-05:00,4.443526817324806
2016-12-02 00:00:00-05:00,4.43383846468069
2016-12-05 00:00:00-05:00,4.440754946331705
2016-12-06 00:00:00-05:00,4.436052907342232
2016-12-07 00:00:00-05:00,4.431811939512876
2016-12-08 00:00:00-05:00,4.445244130166363
2016-12-09 00:00:00-05:00,4.459625833474472
2016-12-12 00:00:00-05:00,4.453784691959433
2016-12-13 00:00:00-05:00,4.474174550918062
2016-12-14 00:00:00-05:00,4.438358464752608
2016-12-15 00:00:00-05:00,4.435571939454239
2016-12-16 00:00:00-05:00,4.43634153966203
2016-12-19 00:00:00-05:00,4.4313288362507555
2016-12-20 00:00:00-05:00,4.4282315456883365
2016-12-21 00:00:00-05:00,4.422300841246257
2016-12-22 00:00:00-05:00,4.427941018141094
2016-12-23 00:00:00-05:00,4.417217539433296
2016-12-27 00:00:00-05:00,4.422203645846464
2016-12-28 00:00:00-05:00,4.413485997011195
2016-12-29 00:00:00-05:00,4.40983954155327
2016-12-30 00:00:00-05:00,4.408060748321122
2017-01-03 00:00:00-05:00,4.431908296274678
2017-01-04 00:00:00-05:00,4.432681173388421
2017-01-05 00:00:00-05:00,4.438070955097664
2017-01-06 00:00:00-05:00,4.4479090523732285
2017-01-09 00:00:00-05:00,4.426873720758479
2017-01-10 00:00:00-05:00,4.430555457934058
2017-01-11 00:00:00-05:00,4.445148691797989
2017-01-12 00:00:00-05:00,4.45103109005777
2017-01-13 00:00:00-05:00,4.451220660346105
2017-01-17 00:00:00-05:00,4.452074527026578
2017-01-18 00:00:00-05:00,4.4513157879486425
2017-01-19 00:00:00-05:00,4.44932128765996
2017-01-20 00:00:00-05:00,4.4519797383496815
2017-01-23 00:00:00-05:00,4.432738104331927
2017-01-24 00:00:00-05:00,4.434862175238598
2017-01-25 00:00:00-05:00,4.43698201483287
2017-01-26 00:00:00-05:00,4.441686884952692
2017-01-27 00:00:00-05:00,4.427310674826408
2017-01-30 00:00:00-05:00,4.410651622400819
2017-01-31 00:00:00-05:00,4.414399645730334
2017-02-01 00:00:00-05:00,4.4086736246315334
2017-02-02 00:00:00-05:00,4.395819058000431
2017-02-03 00:00:00-05:00,4.4080792385665655
2017-02-06 00:00:00-05:00,4.395718783826674
2017-02-07 00:00:00-05:00,4.370220923082387
2017-02-08 00:00:00-05:00,4.379948136370398
2017-02-09 00:00:00-05:00,4.39682143503958
2017-02-10 00:00:00-05:00,4.413020677021826
2017-02-13 00:00:00-05:00,4.402217089108718
2017-02-14 00:00:00-05:00,4.410948327704671
2017-02-15 00:00:00-05:00,4.406195007686957
2017-02-16 00:00:00-05:00,4.400421770597398
2017-02-17 00:00:00-05:00,4.388975700492435
2017-02-21 00:00:00-05:00,4.393409415443694
2017-02-22 00:00:00-05:00,4.373713135629981
2017-02-23 00:00:00-05:00,4.374123093063221
2017-02-24 00:00:00-05:00,4.361021468058202
2017-02-27 00:00:00-05:00,4.377602111746895
2017-02-28 00:00:00-05:00,4.368160747214197
2017-03-01 00:00:00-05:00,4.399223067189415
2017-03-02 00:00:00-05:00,4.383304980602038
2017-03-03 00:00:00-05:00,4.3843202593237365
2017-03-06 00:00:00-05:00,4.399422904039977
2017-03-07 00:00:00-05:00,4.394012394207127
2017-03-08 00:00:00-05:00,4.345638857175875
2017-03-09 00:00:00-05:00,4.354771530450285
2017-03-10 00:00:00-05:00,4.34521685413309
2017-03-13 00:00:00-04:00,4.346903403729634
2017-03-14 00:00:00-04:00,4.343105055852613
2017-03-15 00:00:00-04:00,4.368882151546968
2017-03-16 00:00:00-04:00,4.356128824536483
2017-03-17 00:00:00-04:00,4.3623703112957335
2017-03-20 00:00:00-04:00,4.360190273031891
2017-03-21 00:00:00-04:00,4.342470377866402
2017-03-22 00:00:00-04:00,4.343739232188562
2017-03-23 00:00:00-04:00,4.34542777899288
2017-03-24 00:00:00-04:00,4.345955193194604
2017-03-27 00:00:00-04:00,4.330229974740397
2017-03-28 00:00:00-04:00,4.350478052580934
2017-03-29 00:00:00-04:00,4.368263823031483
2017-03-30 00:00:00-04:00,4.370014874389602
2017-03-31 00:00:00-04:00,4.373918327642444
2017-04-03 00:00:00-04:00,4.367851649457056
2017-04-04 00:00:00-04:00,4.381068114221631
2017-04-05 00:00:00-04:00,4.374225460052427
2017-04-06 00:00:00-04:00,4.37903076129506
2017-04-07 00:00:00-04:00,4.37196865013045
2017-04-10 00:00:00-04:00,4.3843202593237365
2017-04-11 00:00:00-04:00,4.379001012592678
2017-04-12 00:00:00-04:00,4.375008869265549
2017-04-13 00:00:00-04:00,4.355850249145338
2017-04-17 00:00:00-04:00,4.356895240415737
2017-04-18 00:00:00-04:00,4.347344738788661
2017-04-19 00:00:00-04:00,4.33097173044824
2017-04-20 00:00:00-04:00,4.331079313627352
2017-04-21 00:00:00-04:00,4.334075747386336
2017-04-24 00:00:00-04:00,4.335783872761384
2017-04-25 00:00:00-04:00,4.351973963741762
2017-04-26 00:00:00-04:00,4.34184601882271
2017-04-27 00:00:00-04:00,4.327858350608539
2017-04-28 00:00:00-04:00,4.3224673550414074
2017-05-01 00:00:00-04:00,4.317373564332572
2017-05-02 00:00:00-04:00,4.315633469127626
2017-05-03 00:00:00-04:00,4.314435567000539
2017-05-04 00:00:00-04:00,4.279390865739113
2017-05-05 00:00:00-04:00,4.304798895379305
2017-05-08 00:00:00-04:00,4.3136722486253305
2017-05-09 00:00:00-04:00,4.313127014563111
2017-05-10 00:00:00-04:00,4.344281996807433
2017-05-11 00:00:00-04:00,4.341527883498129
2017-05-12 00:00:00-04:00,4.3459728908161095
2017-05-15 00:00:00-04:00,4.346289714225692
2017-05-16 00:00:00-04:00,4.336743668344911
2017-05-17 00:00:00-04:00,4.327320496562671
2017-05-18 00:00:00-04:00,4.3136722486253305
2017-05-19 00:00:00-04:00,4.336530404585783
2017-05-22 00:00:00-04:00,4.329040592092711
2017-05-23 00:00:00-04:00,4.322791712546942
2017-05-24 00:00:00-04:00,4.324303721952758
2017-05-25 00:00:00-04:00,4.306338232333454
2017-05-26 00:00:00-04:00,4.308533138795731
2017-05-30 00:00:00-04:00,4.290837390538707
2017-05-31 00:00:00-04:00,4.298507231034907
2017-06-01 00:00:00-04:00,4.299503150913298
2017-06-02 00:00:00-04:00,4.291506732404533
2017-06-05 00:00:00-04:00,4.286139830676482
2017-06-06 00:00:00-04:00,4.30424859423528
2017-06-07 00:00:00-04:00,4.2742990551352955
2017-06-08 00:00:00-04:00,4.273845095701996
2017-06-09 00:00:00-04:00,4.295957009642181
2017-06-12 00:00:00-04:00,4.293734190386419
2017-06-13 00:00:00-04:00,4.301271930554115
2017-06-14 00:00:00-04:00,4.283108268617339
2017-06-15 00:00:00-04:00,4.261626788661812
2017-06-16 00:00:00-04:00,4.278487566574362
2017-06-19 00:00:00-04:00,4.273390823784492
2017-06-20 00:00:00-04:00,4.270889698560908
2017-06-21 00:00:00-04:00,4.2625455476932785
2017-06-22 00:00:00-04:00,4.269067052382557
2017-06-23 00:00:00-04:00,4.270206408847909
2017-06-26 00:00:00-04:00,4.265639673478924
2017-06-27 00:00:00-04:00,4.272595510623393
2017-06-28 00:00:00-04:00,4.2841200562122825
2017-06-29 00:00:00-04:00,4.295068557988286
2017-06-30 00:00:00-04:00,4.300829744418401
2017-07-03 00:00:00-04:00,4.321061230806445
2017-07-05 00:00:00-04:00,4.29839670787143
2017-07-06 00:00:00-04:00,4.279729181395281
2017-07-07 00:00:00-04:00,4.277583344855803
2017-07-10 00:00:00-04:00,4.290837390538707
2017-07-11 00:00:00-04:00,4.302043943102989
2017-07-12 00:00:00-04:00,4.301382136412775
2017-07-13 00:00:00-04:00,4.316836758058455
2017-07-14 00:00:00-04:00,4.317490046314391
2017-07-17 00:00:00-04:00,4.317816733851146
2017-07-18 00:00:00-04:00,4.315637953337957
2017-07-19 00:00:00-04:00,4.343702568362842
2017-07-20 00:00:00-04:00,4.336786974193672
2017-07-21 00:00:00-04:00,4.328747124165653
2017-07-24 00:00:00-04:00,4.333042779567395
2017-07-25 00:00:00-04:00,4.3496231692171925
2017-07-26 00:00:00-04:00,4.348357325051953
2017-07-27 00:00:00-04:00,4.361255570607093
2017-07-28 00:00:00-04:00,4.355403838161248
2017-07-31 00:00:00-04:00,4.352465031486947
2017-08-01 00:00:00-04:00,4.345291949274663
2017-08-02 00:00:00-04:00,4.322376354116709
2017-08-03 00:00:00-04:00,4.284627721410214
2017-08-04 00:00:00-04:00,4.30191273267837
2017-08-07 00:00:00-04:00,4.293251660113808
2017-08-08 00:00:00-04:00,4.309622072460896
2017-08-09 00:00:00-04:00,4.300806471490726
2017-08-10 00:00:00-04:00,4.287099482014937
2017-08-11 00:00:00-04:00,4.280456774414608
2017-08-14 00:00:00-04:00,4.274338672520578
2017-08-15 00:00:00-04:00,4.2632530993267395
2017-08-16 00:00:00-04:00,4.239531520850806
2017-08-17 00:00:00-04:00,4.220524141841518
2017-08-18 00:00:00-04:00,4.229003261600687
2017-08-21 00:00:00-04:00,4.224235152549931
2017-08-22 00:00:00-04:00,4.230785304879178
2017-08-23 00:00:00-04:00,4.24106040183444
2017-08-24 00:00:00-04:00,4.235286153271726
2017-08-25 00:00:00-04:00,4.23398564326161
2017-08-28 00:00:00-04:00,4.220763858633919
2017-08-29 00:00:00-04:00,4.2177616308580355
2017-08-30 00:00:00-04:00,4.223996043152558
2017-08-31 00:00:00-04:00,4.2396491847281315
2017-09-01 00:00:00-04:00,4.247384985003143
2017-09-05 00:00:00-04:00,4.249949980871463
2017-09-06 00:00:00-04:00,4.2727464751931254
2017-09-07 00:00:00-04:00,4.2812472336106016
2017-09-08 00:00:00-04:00,4.260491824650828
2017-09-11 00:00:00-04:00,4.273656779649717
2017-09-12 00:00:00-04:00,4.279779253376405
2017-09-13 00:00:00-04:00,4.309073291418394
2017-09-14 00:00:00-04:00,4.3165101574657765
2017-09-15 00:00:00-04:00,4.33207802006617
2017-09-18 00:00:00-04:00,4.330252472445682
2017-09-19 00:00:00-04:00,4.331111726812577
2017-09-20 00:00:00-04:00,4.34232362750116
2017-09-21 00:00:00-04:00,4.33923927348164
2017-09-22 00:00:00-04:00,4.346244050396666
2017-09-25 00:00:00-04:00,4.364480194022782
2017-09-26 00:00:00-04:00,4.370485298088872
2017-09-27 00:00:00-04:00,4.375119980275405
2017-09-28 00:00:00-04:00,4.369969315973232
2017-09-29 00:00:00-04:00,4.369142533506066
2017-10-02 00:00:00-04:00,4.373680247147035
2017-10-03 00:00:00-04:00,4.366658464137279
2017-10-04 00:00:00-04:00,4.364895214509762
2017-10-05 00:00:00-04:00,4.367176640952697
2017-10-06 00:00:00-04:00,4.363440965634431
2017-10-09 00:00:00-04:00,4.366658464137279
2017-10-10 00:00:00-04:00,4.369555817057445
2017-10-11 00:00:00-04:00,4.371104761736893
2017-10-12 00:00:00-04:00,4.368211609592602
2017-10-13 00:00:00-04:00,4.367901270146553
2017-10-16 00:00:00-04:00,4.375729382717013
2017-10-17 00:00:00-04:00,4.3781948781186415
2017-10-18 00:00:00-04:00,4.370055411913311
2017-10-19 00:00:00-04:00,4.360701192447004
2017-10-20 00:00:00-04:00,4.371915955424825
2017-10-23 00:00:00-04:00,4.373257601205979
2017-10-24 00:00:00-04:00,4.368191497022158
2017-10-25 00:00:00-04:00,4.364765302603725
2017-10-26 00:00:00-04:00,4.372741411567003
2017-10-27 00:00:00-04:00,4.388607696036233
2017-10-30 00:00:00-04:00,4.399315023345797
2017-10-31 00:00:00-04:00,4.402725108742451
2017-11-01 00:00:00-04:00,4.4266678039038405
2017-11-02 00:00:00-04:00,4.4330993770927085
2017-11-03 00:00:00-04:00,4.448042884471643
2017-11-06 00:00:00-05:00,4.471310806406503
2017-11-07 00:00:00-05:00,4.463143600096214
2017-11-08 00:00:00-05:00,4.446414791790904
2017-11-09 00:00:00-05:00,4.450718799230216
2017-11-10 00:00:00-05:00,4.448808391878528
2017-11-13 00:00:00-05:00,4.447660000214535
2017-11-14 00:00:00-05:00,4.428426124621551
2017-11-15 00:00:00-05:00,4.417534485282074
2017-11-16 00:00:00-05:00,4.4182247352393915
2017-11-17 00:00:00-05:00,4.420292814611248
2017-11-20 00:00:00-05:00,4.418323329770749
2017-11-21 00:00:00-05:00,4.420489770170873
2017-11-22 00:00:00-05:00,4.419800898758048
2017-11-24 00:00:00-05:00,4.420489770170873
2017-11-27 00:00:00-05:00,4.40222456597902
2017-11-28 00:00:00-05:00,4.402424644955278
2017-11-29 00:00:00-05:00,4.409013526352981
2017-11-30 00:00:00-05:00,4.426961072141509
2017-12-01 00:00:00-05:00,4.432710727117147
2017-12-04 00:00:00-05:00,4.414471383208863
2017-12-05 00:00:00-05:00,4.412985727685416
2017-12-06 00:00:00-05:00,4.3925606515618885
2017-12-07 00:00:00-05:00,4.40122207331569
2017-12-08 00:00:00-05:00,4.407918482787328
2017-12-11 00:00:00-05:00,4.4160533768771595
2017-12-12 00:00:00-05:00,4.406822238786616
2017-12-13 00:00:00-05:00,4.403425653331973
2017-12-14 00:00:00-05:00,4.400419523494756
2017-12-15 00:00:00-05:00,4.389419872437927
2017-12-18 00:00:00-05:00,4.403125773496392
2017-12-19 00:00:00-05:00,4.4182247352393915
2017-12-20 00:00:00-05:00,4.438813767167971
2017-12-21 00:00:00-05:00,4.465591404785899
2017-12-22 00:00:00-05:00,4.472712174254888
2017-12-26 00:00:00-05:00,4.4939580458393715
2017-12-27 00:00:00-05:00,4.4843148946611535
2017-12-28 00:00:00-05:00,4.485145106357732
2017-12-29 00:00:00-05:00,4.480153552279923
2018-01-02 00:00:00-05:00,4.492952053222865
2018-01-03 00:00:00-05:00,4.507755230746499
2018-01-04 00:00:00-05:00,4.507935357077604
2018-01-05 00:00:00-05:00,4.518871556531592
2018-01-08 00:00:00-05:00,4.523674078381747
2018-01-09 00:00:00-05:00,4.514762072048804
2018-01-10 00:00:00-05:00,4.517444081651299
2018-01-11 00:00:00-05:00,4.54500457669869
2018-01-12 00:00:00-05:00,4.549856562467347
2018-01-16 00:00:00-05:00,4.531142037590226
2018-01-17 00:00:00-05:00,4.532375918698935
2018-01-18 00:00:00-05:00,4.538610417777073
2018-01-19 00:00:00-05:00,4.539747810824936
2018-01-22 00:00:00-05:00,4.56094318786198
2018-01-23 00:00:00-05:00,4.569636533232807
2018-01-24 00:00:00-05:00,4.5749686143483395
2018-01-25 00:00:00-05:00,4.566321541060015
2018-01-26 00:00:00-05:00,4.568957547797237
2018-01-29 00:00:00-05:00,4.558886631826179
2018-01-30 00:00:00-05:00,4.54671824719901
2018-01-31 00:00:00-05:00,4.545240899038113
2018-02-01 00:00:00-05:00,4.558371811302412
2018-02-02 00:00:00-05:00,4.5261911493746885
2018-02-05 00:00:00-05:00,4.496781221066595
2018-02-06 00:00:00-05:00,4.48493708028438
2018-02-07 00:00:00-05:00,4.461670362806982
2018-02-08 00:00:00-05:00,4.415825489426024
2018-02-09 00:00:00-05:00,4.406178902955187
2018-02-12 00:00:00-05:00,4.436396185228416
2018-02-13 00:00:00-05:00,4.429879124576458
2018-02-14 00:00:00-05:00,4.470892141920885
2018-02-15 00:00:00-05:00,4.47956575305303
2018-02-16 00:00:00-05:00,4.479101288316917
2018-02-20 00:00:00-05:00,4.4820697792425195
2018-02-21 00:00:00-05:00,4.461953897075846
2018-02-22 00:00:00-05:00,4.473978409237383
2018-02-23 00:00:00-05:00,4.490096032925666
2018-02-26 00:00:00-05:00,4.496142200337917
2018-02-27 00:00:00-05:00,4.472576986632642
2018-02-28 00:00:00-05:00,4.419579283133323
2018-03-01 00:00:00-05:00,4.417210081757333
2018-03-02 00:00:00-05:00,4.419874820937128
2018-03-05 00:00:00-05:00,4.4234174066185705
2018-03-06 00:00:00-05:00,4.415528567836776
2018-03-07 00:00:00-05:00,4.414141459012256
2018-03-08 00:00:00-05:00,4.411361455771724
2018-03-09 00:00:00-05:00,4.433094302413365
2018-03-12 00:00:00-04:00,4.411957967146945
2018-03-13 00:00:00-04:00,4.405978828911296
2018-03-14 00:00:00-04:00,4.404378565788623
2018-03-15 00:00:00-04:00,4.391887202804916
2018-03-16 00:00:00-04:00,4.409969014310889
2018-03-19 00:00:00-04:00,4.390060927340576
2018-03-20 00:00:00-04:00,4.41869150176603
2018-03-21 00:00:00-04:00,4.452171796121249
2018-03-22 00:00:00-04:00,4.447484403040788
2018-03-23 00:00:00-04:00,4.462426392948978
2018-03-26 00:00:00-04:00,4.4784506057698925
2018-03-27 00:00:00-04:00,4.466856519915853
2018-03-28 00:00:00-04:00,4.442967691656101
2018-03-29 00:00:00-04:00,4.456837320017428
2018-04-02 00:00:00-04:00,4.43435818916871
2018-04-03 00:00:00-04:00,4.454935739746146
2018-04-04 00:00:00-04:00,4.446332968766727
2018-04-05 00:00:00-04:00,4.448346819468133
2018-04-06 00:00:00-04:00,4.424595332799284
2018-04-09 00:00:00-04:00,4.438720596648101
2018-04-10 00:00:00-04:00,4.479287169322456
2018-04-11 00:00:00-04:00,4.495319965286614
2018-04-12 00:00:00-04:00,4.500607302034421
2018-04-13 00:00:00-04:00,4.511702827713504
2018-04-16 00:00:00-04:00,4.511702827713504
2018-04-17 00:00:00-04:00,4.512873063377674
2018-04-18 00:00:00-04:00,4.528051976129536
2018-04-19 00:00:00-04:00,4.5385415915432255
2018-04-20 00:00:00-04:00,4.537927735834366
2018-04-23 00:00:00-04:00,4.5455322350734475
2018-04-24 00:00:00-04:00,4.543353137319102
2018-04-25 00:00:00-04:00,4.550396737852474
2018-04-26 00:00:00-04:00,4.56945160955599
2018-04-27 00:00:00-04:00,4.562370064134075
2018-04-30 00:00:00-04:00,4.574116810396757
2018-05-01 00:00:00-04:00,4.568941330652036
2018-05-02 00:00:00-04:00,4.561170432229989
2018-05-03 00:00:00-04:00,4.555668835300166
2018-05-04 00:00:00-04:00,4.543963591536591
2018-05-07 00:00:00-04:00,4.5372254797579545
2018-05-08 00:00:00-04:00,4.549443071927521
2018-05-09 00:00:00-04:00,4.5708956978537305
2018-05-10 00:00:00-04:00,4.580695559585735
2018-05-11 00:00:00-04:00,4.567664493045776
2018-05-14 00:00:00-04:00,4.578423134465426
2018-05-15 00:00:00-04:00,4.591399349124065
2018-05-16 00:00:00-04:00,4.601906657238001
2018-05-17 00:00:00-04:00,4.639464058258646
2018-05-18 00:00:00-04:00,4.636606352158889
2018-05-21 00:00:00-04:00,4.649716608279045
2018-05-22 00:00:00-04:00,4.620336575092312
2018-05-23 00:00:00-04:00,4.614014322874259
2018-05-24 00:00:00-04:00,4.589317579414524
2018-05-25 00:00:00-04:00,4.57064095912774
2018-05-29 00:00:00-04:00,4.557391312964689
2018-05-30 00:00:00-04:00,4.587482092423916
2018-05-31 00:00:00-04:00,4.5710653560591705
2018-06-01 00:00:00-04:00,4.575638659985875
2018-06-04 00:00:00-04:00,4.578339048376739
2018-06-05 00:00:00-04:00,4.5605702357245805
2018-06-06 00:00:00-04:00,4.556788683117267
2018-06-07 00:00:00-04:00,4.572083568739436
2018-06-08 00:00:00-04:00,4.569876511436729
2018-06-11 00:00:00-04:00,4.57276193301757
2018-06-12 00:00:00-04:00,4.576652150554581
2018-06-13 00:00:00-04:00,4.574793718616891
2018-06-14 00:00:00-04:00,4.56868609352262
2018-06-15 00:00:00-04:00,4.539768580912167
2018-06-18 00:00:00-04:00,4.5609132036961695
2018-06-19 00:00:00-04:00,4.56484993668166
2018-06-20 00:00:00-04:00,4.584722918888443
2018-06-21 00:00:00-04:00,4.560741654653758
2018-06-22 00:00:00-04:00,4.576989726455952
2018-06-25 00:00:00-04:00,4.562712415482892
2018-06-26 00:00:00-04:00,4.58681387707618
2018-06-27 00:00:00-04:00,4.62170929353928
2018-06-28 00:00:00-04:00,4.618233671073436
2018-06-29 00:00:00-04:00,4.62573583555178
2018-07-02 00:00:00-04:00,4.609286838264867
2018-07-03 00:00:00-04:00,4.609531997333648
2018-07-05 00:00:00-04:00,4.615963851308223
2018-07-06 00:00:00-04:00,4.625092482900538
2018-07-09 00:00:00-04:00,4.639305322441271
2018-07-10 00:00:00-04:00,4.645943155869158
2018-07-11 00:00:00-04:00,4.627582696594933
2018-07-12 00:00:00-04:00,4.623402468796592
2018-07-13 00:00:00-04:00,4.6379569324375876
2018-07-16 00:00:00-04:00,4.628651112396544
2018-07-17 00:00:00-04:00,4.626320960593464
2018-07-18 00:00:00-04:00,4.620351002938055
2018-07-19 00:00:00-04:00,4.610674874296327
2018-07-20 00:00:00-04:00,4.610348102625236
2018-07-23 00:00:00-04:00,4.614507711395059
2018-07-24 00:00:00-04:00,4.63672382457694
2018-07-25 00:00:00-04:00,4.658456800315139
2018-07-26 00:00:00-04:00,4.66218881955142
2018-07-27 00:00:00-04:00,4.664436823316161
2018-07-30 00:00:00-04:00,4.670227037811214
2018-07-31 00:00:00-04:00,4.662809398871378
2018-08-01 00:00:00-04:00,4.63632558967061
2018-08-02 00:00:00-04:00,4.639188595357944
2018-08-03 00:00:00-04:00,4.610838295960926
2018-08-06 00:00:00-04:00,4.622936910212871
2018-08-07 00:00:00-04:00,4.62720558180214
2018-08-08 00:00:00-04:00,4.613774874430426
2018-08-09 00:00:00-04:00,4.610021148214776
2018-08-10 00:00:00-04:00,4.613774874430426
2018-08-13 00:00:00-04:00,4.603376509830928
2018-08-14 00:00:00-04:00,4.616215528367361
2018-08-15 00:00:00-04:00,4.552213264244805
2018-08-16 00:00:00-04:00,4.5562763062658265
2018-08-17 00:00:00-04:00,4.546392464663775
2018-08-20 00:00:00-04:00,4.546392464663775
2018-08-21 00:00:00-04:00,4.552646195897306
2018-08-22 00:00:00-04:00,4.568367549127719
2018-08-23 00:00:00-04:00,4.560494687202988
2018-08-24 00:00:00-04:00,4.569560085393103
2018-08-27 00:00:00-04:00,4.579640297473447
2018-08-28 00:00:00-04:00,4.573892804257769
2018-08-29 00:00:00-04:00,4.5807352763955045
2018-08-30 00:00:00-04:00,4.581828979554343
2018-08-31 00:00:00-04:00,4.576094088118378
2018-09-04 00:00:00-04:00,4.571431495468926
2018-09-05 00:00:00-04:00,4.573214261692602
2018-09-06 00:00:00-04:00,4.552732550697231
2018-09-07 00:00:00-04:00,4.5437748319005795
2018-09-10 00:00:00-04:00,4.542463807067077
2018-09-11 00:00:00-04:00,4.5589471204230385
2018-09-12 00:00:00-04:00,4.565123307679732
2018-09-13 00:00:00-04:00,4.562382964146952
2018-09-14 00:00:00-04:00,4.572620227990611
2018-09-17 00:00:00-04:00,4.570240795138896
2018-09-18 00:00:00-04:00,4.586360040872012
2018-09-19 00:00:00-04:00,4.592369566603015
2018-09-20 00:00:00-04:00,4.584348995088136
2018-09-21 00:00:00-04:00,4.586443921649257
2018-09-24 00:00:00-04:00,4.623662991093584
2018-09-25 00:00:00-04:00,4.6368828228423755
2018-09-26 00:00:00-04:00,4.63425296368712
2018-09-27 00:00:00-04:00,4.647649278442547
2018-09-28 00:00:00-04:00,4.65212747145182
2018-10-01 00:00:00-04:00,4.66706582875918
2018-10-02 00:00:00-04:00,4.6709966728128425
2018-10-03 00:00:00-04:00,4.6739153970082885
2018-10-04 00:00:00-04:00,4.672764232081336
2018-10-05 00:00:00-04:00,4.679041215574674
2018-10-08 00:00:00-04:00,4.669688298287032
2018-10-09 00:00:00-04:00,4.688912191402312
2018-10-10 00:00:00-04:00,4.643467316031484
2018-10-11 00:00:00-04:00,4.6043636627155
2018-10-12 00:00:00-04:00,4.608957712497364
2018-10-15 00:00:00-04:00,4.6121446329643945
2018-10-16 00:00:00-04:00,4.611408620994906
2018-10-17 00:00:00-04:00,4.5939164563359824
2018-10-18 00:00:00-04:00,4.580593523935328
2018-10-19 00:00:00-04:00,4.57314273473782
2018-10-22 00:00:00-04:00,4.5610016384516925
2018-10-23 00:00:00-04:00,4.515869341578463
2018-10-24 00:00:00-04:00,4.470017694238331
2018-10-25 00:00:00-04:00,4.479208511605537
2018-10-26 00:00:00-04:00,4.473966839590829
2018-10-29 00:00:00-04:00,4.430623865542591
2018-10-30 00:00:00-04:00,4.46406449145081
2018-10-31 00:00:00-04:00,4.462451824639832
2018-11-01 00:00:00-04:00,4.477058909849557
2018-11-02 00:00:00-04:00,4.433656981818504
2018-11-05 00:00:00-05:00,4.471994303544031
2018-11-06 00:00:00-05:00,4.481166968814885
2018-11-07 00:00:00-05:00,4.4979818629410415
2018-11-08 00:00:00-05:00,4.457789408142102
2018-11-09 00:00:00-05:00,4.46406449145081
2018-11-12 00:00:00-05:00,4.42285140628989
2018-11-13 00:00:00-05:00,4.395518111219971
2018-11-14 00:00:00-05:00,4.390940265916043
2018-11-15 00:00:00-05:00,4.426203834037685
2018-11-16 00:00:00-05:00,4.461122174095305
2018-11-19 00:00:00-05:00,4.465958190783452
2018-11-20 00:00:00-05:00,4.4337545193668015
2018-11-21 00:00:00-05:00,4.468697984861723
2018-11-23 00:00:00-05:00,4.417404515574406
2018-11-26 00:00:00-05:00,4.435511734399058
2018-11-27 00:00:00-05:00,4.42974111165321
2018-11-28 00:00:00-05:00,4.447435630500897
2018-11-29 00:00:00-05:00,4.463685408761343
2018-11-30 00:00:00-05:00,4.442992725785292
2018-12-03 00:00:00-05:00,4.488407890414461
2018-12-04 00:00:00-05:00,4.4503225979307315
2018-12-06 00:00:00-05:00,4.431505205519626
2018-12-07 00:00:00-05:00,4.445892529651476
2018-12-10 00:00:00-05:00,4.427384499658162
2018-12-11 00:00:00-05:00,4.430917429126829
2018-12-12 00:00:00-05:00,4.448976353858325
2018-12-13 00:00:00-05:00,4.438336018714033
2018-12-14 00:00:00-05:00,4.411228550901269
2018-12-17 00:00:00-05:00,4.371792251640892
2018-12-18 00:00:00-05:00,4.348659984089926
2018-12-19 00:00:00-05:00,4.337643326236395
2018-12-20 00:00:00-05:00,4.30217503301872
2018-12-21 00:00:00-05:00,4.274150980556
2018-12-24 00:00:00-05:00,4.222410959151068
2018-12-26 00:00:00-05:00,4.293782628524703
2018-12-27 00:00:00-05:00,4.291532623977725
2018-12-28 00:00:00-05:00,4.2771258962504355
2018-12-31 00:00:00-05:00,4.273577595549885
2019-01-02 00:00:00-05:00,4.311823499601742
2019-01-03 00:00:00-05:00,4.304734812212107
2019-01-04 00:00:00-05:00,4.347701989619511
2019-01-07 00:00:00-05:00,4.353964252710759
2019-01-08 00:00:00-05:00,4.364594324845362
2019-01-09 00:00:00-05:00,4.402296154182024
2019-01-10 00:00:00-05:00,4.401589954582397
2019-01-11 00:00:00-05:00,4.378628552816874
2019-01-14 00:00:00-05:00,4.395417054071785
2019-01-15 00:00:00-05:00,4.396228516247006
2019-01-16 00:00:00-05:00,4.3992736863033715
2019-01-17 00:00:00-05:00,4.403117462967601
2019-01-18 00:00:00-05:00,4.423108086498976
2019-01-22 00:00:00-05:00,4.380759066053629
2019-01-23 00:00:00-05:00,4.377760823714843
2019-01-24 00:00:00-05:00,4.384674721464451
2019-01-25 00:00:00-05:00,4.403622318949674
2019-01-28 00:00:00-05:00,4.393480128973408
2019-01-29 00:00:00-05:00,4.40129850423324
2019-01-30 00:00:00-05:00,4.407147611135255
2019-01-31 00:00:00-05:00,4.404630614266629
2019-02-01 00:00:00-05:00,4.401096234905421
2019-02-04 00:00:00-05:00,4.406443434531532
2019-02-05 00:00:00-05:00,4.3960255008327
2019-02-06 00:00:00-05:00,4.373714001101768
2019-02-07 00:00:00-05:00,4.339984524160143
2019-02-08 00:00:00-05:00,4.334701375629247
2019-02-11 00:00:00-05:00,4.3530189862900155
2019-02-12 00:00:00-05:00,4.367979130008223
2019-02-13 00:00:00-05:00,4.379623064054239
2019-02-14 00:00:00-05:00,4.381791240149475
2019-02-15 00:00:00-05:00,4.415159690575878
2019-02-19 00:00:00-05:00,4.409758473427802
2019-02-20 00:00:00-05:00,4.4003876889981814
2019-02-21 00:00:00-05:00,4.36504712890794
2019-02-22 00:00:00-05:00,4.366932980255931
2019-02-25 00:00:00-05:00,4.358734529695708
2019-02-26 00:00:00-05:00,4.349829818233735
2019-02-27 00:00:00-05:00,4.3617905676616004
2019-02-28 00:00:00-05:00,4.35078764687711
2019-03-01 00:00:00-05:00,4.376206239302847
2019-03-04 00:00:00-05:00,4.380243009131499
2019-03-05 00:00:00-05:00,4.366619144548236
2019-03-06 00:00:00-05:00,4.328628827611747
2019-03-07 00:00:00-05:00,4.322190884994204
2019-03-08 00:00:00-05:00,4.266943236930957
2019-03-11 00:00:00-04:00,4.264858756201246
2019-03-12 00:00:00-04:00,4.273170841211031
2019-03-13 00:00:00-04:00,4.2912861048325315
2019-03-14 00:00:00-04:00,4.303851859824378
2019-03-15 00:00:00-04:00,4.294442299441055
2019-03-18 00:00:00-04:00,4.328411310523172
2019-03-19 00:00:00-04:00,4.338801017752313
2019-03-20 00:00:00-04:00,4.370694432881252
2019-03-21 00:00:00-04:00,4.380862379157928
2019-03-22 00:00:00-04:00,4.347377517600598
2019-03-25 00:00:00-04:00,4.337723677573156
2019-03-26 00:00:00-04:00,4.358945550651399
2019-03-27 00:00:00-04:00,4.357044659276391
2019-03-28 00:00:00-04:00,4.363892932550532
2019-03-29 00:00:00-04:00,4.363262473264846
2019-04-01 00:00:00-04:00,4.3815848905433805
2019-04-02 00:00:00-04:00,4.372361509041224
2019-04-03 00:00:00-04:00,4.350042234125547
2019-04-04 00:00:00-04:00,4.347270785052564
2019-04-05 00:00:00-04:00,4.39886800520618
2019-04-08 00:00:00-04:00,4.407449541581498
2019-04-09 00:00:00-04:00,4.398259690886383
2019-04-10 00:00:00-04:00,4.399881665334454
2019-04-11 00:00:00-04:00,4.399881665334454
2019-04-12 00:00:00-04:00,4.464401099039817
2019-04-15 00:00:00-04:00,4.435732468549805
2019-04-16 00:00:00-04:00,4.437982134055369
2019-04-17 00:00:00-04:00,4.432986821905885
2019-04-18 00:00:00-04:00,4.452723934551719
2019-04-22 00:00:00-04:00,4.483066774798176
2019-04-23 00:00:00-04:00,4.478667604720299
2019-04-24 00:00:00-04:00,4.453397784415653
2019-04-25 00:00:00-04:00,4.435340772058318
2019-04-26 00:00:00-04:00,4.393326344230164
2019-04-29 00:00:00-04:00,4.384294854232659
2019-04-30 00:00:00-04:00,4.374452936771041
2019-05-01 00:00:00-04:00,4.330176239333627
2019-05-02 00:00:00-04:00,4.300128526197666
2019-05-03 00:00:00-04:00,4.319344198375622
2019-05-06 00:00:00-04:00,4.323077323161457
2019-05-07 00:00:00-04:00,4.328978345469256
2019-05-08 00:00:00-04:00,4.353197843924233
2019-05-09 00:00:00-04:00,4.35542861679525
2019-05-10 00:00:00-04:00,4.363460882513039
2019-05-13 00:00:00-04:00,4.347545442793429
2019-05-14 00:00:00-04:00,4.356489115117372
2019-05-15 00:00:00-04:00,4.356701099452455
2019-05-16 00:00:00-04:00,4.365353603674664
2019-05-17 00:00:00-04:00,4.34239824565865
2019-05-20 00:00:00-04:00,4.349468696304962
2019-05-21 00:00:00-04:00,4.370070371774796
2019-05-22 00:00:00-04:00,4.3412151106480765
2019-05-23 00:00:00-04:00,4.296533498494079
2019-05-24 00:00:00-04:00,4.27732955025728
2019-05-28 00:00:00-04:00,4.276755548475238
2019-05-29 00:00:00-04:00,4.268918841716414
2019-05-30 00:00:00-04:00,4.239924376166852
2019-05-31 00:00:00-04:00,4.214838740552037
2019-06-03 00:00:00-04:00,4.227821848260004
2019-06-04 00:00:00-04:00,4.243728607053601
2019-06-05 00:00:00-04:00,4.216669248300847
2019-06-06 00:00:00-04:00,4.243609888876833
2019-06-07 00:00:00-04:00,4.247518420597292
2019-06-10 00:00:00-04:00,4.254585514832371
2019-06-11 00:00:00-04:00,4.269728286917071
2019-06-12 00:00:00-04:00,4.252588198979003
2019-06-13 00:00:00-04:00,4.269612722484729
2019-06-14 00:00:00-04:00,4.254233381703775
2019-06-17 00:00:00-04:00,4.257749361479262
2019-06-18 00:00:00-04:00,4.290324193146307
2019-06-19 00:00:00-04:00,4.294279895208444
2019-06-20 00:00:00-04:00,4.325376433741612
2019-06-21 00:00:00-04:00,4.335386167260109
2019-06-24 00:00:00-04:00,4.315596575542988
2019-06-25 00:00:00-04:00,4.309838076871219
2019-06-26 00:00:00-04:00,4.343150863242067
2019-06-27 00:00:00-04:00,4.332567430180409
2019-06-28 00:00:00-04:00,4.343902320377722
2019-07-01 00:00:00-04:00,4.343150863242067
2019-07-02 00:00:00-04:00,4.28190805518863
2019-07-03 00:00:00-04:00,4.277788387562725
2019-07-05 00:00:00-04:00,4.293377134132722
2019-07-08 00:00:00-04:00,4.311058798305586
2019-07-09 00:00:00-04:00,4.299904409327182
2019-07-10 00:00:00-04:00,4.316700144478811
2019-07-11 00:00:00-04:00,4.318683687615211
2019-07-12 00:00:00-04:00,4.319344198375622
2019-07-15 00:00:00-04:00,4.295407435688508
2019-07-16 00:00:00-04:00,4.278742124923085
2019-07-17 00:00:00-04:00,4.257718476610491
2019-07-18 00:00:00-04:00,4.260531454388471
2019-07-19 00:00:00-04:00,4.279202322907255
2019-07-22 00:00:00-04:00,4.281153457946499
2019-07-23 00:00:00-04:00,4.285500811489306
2019-07-24 00:00:00-04:00,4.286528334453853
2019-07-25 00:00:00-04:00,4.260999677130009
2019-07-26 00:00:00-04:00,4.24709754156499
2019-07-29 00:00:00-04:00,4.242698334109994
2019-07-30 00:00:00-04:00,4.267878934255977
2019-07-31 00:00:00-04:00,4.265435982099696
2019-08-01 00:00:00-04:00,4.208147429113937
2019-08-02 00:00:00-04:00,4.225147620592452
2019-08-05 00:00:00-04:00,4.182282026052059
2019-08-06 00:00:00-04:00,4.173126334024073
2019-08-07 00:00:00-04:00,4.163757335229908
2019-08-08 00:00:00-04:00,4.199351011299503
2019-08-09 00:00:00-04:00,4.186954687174447
2019-08-12 00:00:00-04:00,4.168517037009722
2019-08-13 00:00:00-04:00,4.17618771111647
2019-08-14 00:00:00-04:00,4.130589079458917
2019-08-15 00:00:00-04:00,4.129522055400867
2019-08-16 00:00:00-04:00,4.142514252051595
2019-08-19 00:00:00-04:00,4.167104083815799
2019-08-20 00:00:00-04:00,4.152605828926446
2019-08-21 00:00:00-04:00,4.159492891323627
2019-08-22 00:00:00-04:00,4.137099319100935
2019-08-23 00:00:00-04:00,4.086022216090306
2019-08-26 00:00:00-04:00,4.092966825757476
2019-08-27 00:00:00-04:00,4.0847669957713855
2019-08-28 00:00:00-04:00,4.096834428173019
2019-08-29 00:00:00-04:00,4.123364890422016
2019-08-30 00:00:00-04:00,4.119463833653611
2019-09-03 00:00:00-04:00,4.118654577435704
2019-09-04 00:00:00-04:00,4.137893669747992
2019-09-05 00:00:00-04:00,4.138290638996791
2019-09-06 00:00:00-04:00,4.149340351487947
2019-09-09 00:00:00-04:00,4.194860713641421
2019-09-10 00:00:00-04:00,4.196110176386808
2019-09-11 00:00:00-04:00,4.207653787842404
2019-09-12 00:00:00-04:00,4.190852994745081
2019-09-13 00:00:00-04:00,4.187206642524286
2019-09-16 00:00:00-04:00,4.262986725040078
2019-09-17 00:00:00-04:00,4.20999587859385
2019-09-18 00:00:00-04:00,4.211226358188947
2019-09-19 00:00:00-04:00,4.214786210698498
2019-09-20 00:00:00-04:00,4.207283141358706
2019-09-23 00:00:00-04:00,4.196484527291408
2019-09-24 00:00:00-04:00,4.176696894078593
2019-09-25 00:00:00-04:00,4.153648397010135
2019-09-26 00:00:00-04:00,4.131521493830493
2019-09-27 00:00:00-04:00,4.1300558017692675
2019-09-30 00:00:00-04:00,4.119867813464578
2019-10-01 00:00:00-04:00,4.083650041513611
2019-10-02 00:00:00-04:00,4.058468535212756
2019-10-03 00:00:00-04:00,4.073258232456628
2019-10-04 00:00:00-04:00,4.074386847827296
2019-10-07 00:00:00-04:00,4.057895233098589
2019-10-08 00:00:00-04:00,4.043020080524972
2019-10-09 00:00:00-04:00,4.040980890919495
2019-10-10 00:00:00-04:00,4.045635561979857
2019-10-11 00:00:00-04:00,4.050557520867469
2019-10-14 00:00:00-04:00,4.035132272037997
2019-10-15 00:00:00-04:00,4.050557520867469
2019-10-16 00:00:00-04:00,4.039153090139054
2019-10-17 00:00:00-04:00,4.018255554389639
2019-10-18 00:00:00-04:00,3.982736512877778
2019-10-21 00:00:00-04:00,4.031497047592749
2019-10-22 00:00:00-04:00,4.0593349507963
2019-10-23 00:00:00-04:00,4.092834264479844
2019-10-24 00:00:00-04:00,4.093251181088717
2019-10-25 00:00:00-04:00,4.10031280331445
2019-10-28 00:00:00-04:00,4.080385742709169
2019-10-29 00:00:00-04:00,4.091025486979283
2019-10-30 00:00:00-04:00,4.0600539015028625
2019-10-31 00:00:00-04:00,4.055590867480839
2019-11-01 00:00:00-04:00,4.0817921123467125
2019-11-04 00:00:00-05:00,4.1168688219178895
2019-11-05 00:00:00-05:00,4.121202073993911
2019-11-06 00:00:00-05:00,4.085579954284311
2019-11-07 00:00:00-05:00,4.1310171517507595
2019-11-08 00:00:00-05:00,4.13048171080843
2019-11-11 00:00:00-05:00,4.118631432020287
2019-11-12 00:00:00-05:00,4.111425904834027
2019-11-13 00:00:00-05:00,4.102104307084726
2019-11-14 00:00:00-05:00,4.098517324535194
2019-11-15 00:00:00-05:00,4.114015174826471
2019-11-18 00:00:00-05:00,4.083337101479307
2019-11-19 00:00:00-05:00,4.071194932180219
2019-11-20 00:00:00-05:00,4.094500825443682
2019-11-21 00:00:00-05:00,4.111834956031556
2019-11-22 00:00:00-05:00,4.107324155397528
2019-11-25 00:00:00-05:00,4.114559067057106
2019-11-26 00:00:00-05:00,4.092417110278064
2019-11-27 00:00:00-05:00,4.098517324535194
2019-11-29 00:00:00-05:00,4.078272246638376
2019-12-02 00:00:00-05:00,4.076719729959763
2019-12-03 00:00:00-05:00,4.047914539117852
2019-12-04 00:00:00-05:00,4.09436191894403
2019-12-05 00:00:00-05:00,4.073890286797341
2019-12-06 00:00:00-05:00,4.1205261547138115
2019-12-09 00:00:00-05:00,4.1279351507724025
2019-12-10 00:00:00-05:00,4.132354195113592
2019-12-11 00:00:00-05:00,4.130080279277982
2019-12-12 00:00:00-05:00,4.157033809331896
2019-12-13 00:00:00-05:00,4.14100197554696
2019-12-16 00:00:00-05:00,4.172556065455156
2019-12-17 00:00:00-05:00,4.184041468994675
2019-12-18 00:00:00-05:00,4.206376386278491
2019-12-19 00:00:00-05:00,4.214532540598145
2019-12-20 00:00:00-05:00,4.231737704331738
2019-12-23 00:00:00-05:00,4.240410366371549
2019-12-24 00:00:00-05:00,4.245554149335376
2019-12-26 00:00:00-05:00,4.243643183957334
2019-12-27 00:00:00-05:00,4.237527791452821
2019-12-30 00:00:00-05:00,4.228465771486431
2019-12-31 00:00:00-05:00,4.244957344334679
2020-01-02 00:00:00-05:00,4.249483958604669
2020-01-03 00:00:00-05:00,4.259535280943482
2020-01-06 00:00:00-05:00,4.29932623542199
2020-01-07 00:00:00-05:00,4.308891289293986
2020-01-08 00:00:00-05:00,4.28681033016284
2020-01-09 00:00:00-05:00,4.297175578427204
2020-01-10 00:00:00-05:00,4.274483745847646
2020-01-13 00:00:00-05:00,4.265752055641818
2020-01-14 00:00:00-05:00,4.2751790833776235
2020-01-15 00:00:00-05:00,4.279916991208082
2020-01-16 00:00:00-05:00,4.28646558798639
2020-01-17 00:00:00-05:00,4.26661908409043
2020-01-21 00:00:00-05:00,4.251620476007799
2020-01-22 00:00:00-05:00,4.2402518025833285
2020-01-23 00:00:00-05:00,4.224971219223428
2020-01-24 00:00:00-05:00,4.200477560810216
2020-01-27 00:00:00-05:00,4.159446665247846
2020-01-28 00:00:00-05:00,4.164782007485533
2020-01-29 00:00:00-05:00,4.139680644890731
2020-01-30 00:00:00-05:00,4.148689755975694
2020-01-31 00:00:00-05:00,4.109553670671521
2020-02-03 00:00:00-05:00,4.088205264211142
2020-02-04 00:00:00-05:00,4.119244387546731
2020-02-05 00:00:00-05:00,4.164782007485533
2020-02-06 00:00:00-05:00,4.149349016817224
2020-02-07 00:00:00-05:00,4.1291112117505016
2020-02-10 00:00:00-05:00,4.120330419983546
2020-02-11 00:00:00-05:00,4.135011698561041
2020-02-12 00:00:00-05:00,4.142869600064068
2020-02-13 00:00:00-05:00,4.1468413049453074
2020-02-14 00:00:00-05:00,4.136748617612117
2020-02-18 00:00:00-05:00,4.13152933482877
2020-02-19 00:00:00-05:00,4.167763017248067
2020-02-20 00:00:00-05:00,4.150929604001762
2020-02-21 00:00:00-05:00,4.127226487284302
2020-02-24 00:00:00-05:00,4.0675363471952055
2020-02-25 00:00:00-05:00,4.02487092332955
2020-02-26 00:00:00-05:00,3.96663203995484
2020-02-27 00:00:00-05:00,3.9146721575086625
2020-02-28 00:00:00-05:00,3.9675808144390823
2020-03-02 00:00:00-05:00,3.9612377097689846
2020-03-03 00:00:00-05:00,3.954373543045011
2020-03-04 00:00:00-05:00,3.9804601194831974
2020-03-05 00:00:00-05:00,3.945362903943163
2020-03-06 00:00:00-05:00,3.833100358372981
2020-03-09 00:00:00-04:00,3.447331535591709
2020-03-10 00:00:00-04:00,3.5484278532789695
2020-03-11 00:00:00-04:00,3.48029312668498
2020-03-12 00:00:00-04:00,3.3015677490078734
2020-03-13 00:00:00-04:00,3.3699448482498426
2020-03-16 00:00:00-04:00,3.257535473437008
2020-03-17 00:00:00-04:00,3.2507600716471927
2020-03-18 00:00:00-04:00,3.213492786228428
2020-03-19 00:00:00-04:00,3.323479676153903
2020-03-20 00:00:00-04:00,3.3725277230980346
2020-03-23 00:00:00-04:00,3.362445735725738
2020-03-24 00:00:00-04:00,3.5041943810116964
2020-03-25 00:00:00-04:00,3.5014269203440405
2020-03-26 00:00:00-04:00,3.49738767553948
2020-03-27 00:00:00-04:00,3.403846546424688
2020-03-30 00:00:00-04:00,3.375104074404845
2020-03-31 00:00:00-04:00,3.401621867361016
2020-04-01 00:00:00-04:00,3.3641811511165196
2020-04-02 00:00:00-04:00,3.465777625180679
2020-04-03 00:00:00-04:00,3.506453140246237
2020-04-06 00:00:00-04:00,3.494854663460658
2020-04-07 00:00:00-04:00,3.5419160787878208
2020-04-08 00:00:00-04:00,3.6334136243431474
2020-04-09 00:00:00-04:00,3.6229819777883363
2020-04-13 00:00:00-04:00,3.588249295392916
2020-04-14 00:00:00-04:00,3.5634584806832983
2020-04-15 00:00:00-04:00,3.5153727301873694
2020-04-16 00:00:00-04:00,3.4271072889868615
2020-04-17 00:00:00-04:00,3.5631001367646764
2020-04-20 00:00:00-04:00,3.5469571340337156
2020-04-21 00:00:00-04:00,3.530549252987716
2020-04-22 00:00:00-04:00,3.5939296505741702
2020-04-23 00:00:00-04:00,3.618424621669109
2020-04-24 00:00:00-04:00,3.598784485575777
2020-04-27 00:00:00-04:00,3.625634956206892
2020-04-28 00:00:00-04:00,3.6354649476015655
2020-04-29 00:00:00-04:00,3.694598087386026
2020-04-30 00:00:00-04:00,3.6901874209840435
2020-05-01 00:00:00-04:00,3.626308194239526
2020-05-04 00:00:00-04:00,3.673847470728294
2020-05-05 00:00:00-04:00,3.6589748756222336
2020-05-06 00:00:00-04:00,3.654404283718438
2020-05-07 00:00:00-04:00,3.7068858598005225
2020-05-08 00:00:00-04:00,3.769857821286729
2020-05-11 00:00:00-04:00,3.738065178641174
2020-05-12 00:00:00-04:00,3.7356545190913195
2020-05-13 00:00:00-04:00,3.7046063472191446
2020-05-14 00:00:00-04:00,3.6912395856648583
2020-05-15 00:00:00-04:00,3.693759305287847
2020-05-18 00:00:00-04:00,3.7889168173499197
2020-05-19 00:00:00-04:00,3.7543838489487134
2020-05-20 00:00:00-04:00,3.7929135690219744
2020-05-21 00:00:00-04:00,3.7866260755859407
2020-05-22 00:00:00-04:00,3.7858611542956906
2020-05-26 00:00:00-04:00,3.7696632588488566
2020-05-27 00:00:00-04:00,3.7944319164519693
2020-05-28 00:00:00-04:00,3.7735438283670772
2020-05-29 00:00:00-04:00,3.760484648427528
2020-06-01 00:00:00-04:00,3.7768302516432737
2020-06-02 00:00:00-04:00,3.8331200898392837
2020-06-03 00:00:00-04:00,3.843285250147683
2020-06-04 00:00:00-04:00,3.8393039795999084
2020-06-05 00:00:00-04:00,3.9120252179501125
2020-06-08 00:00:00-04:00,3.9581543180420113
2020-06-09 00:00:00-04:00,3.9147193334969455
2020-06-10 00:00:00-04:00,3.8479699621302608
2020-06-11 00:00:00-04:00,3.7640097260574206
2020-06-12 00:00:00-04:00,3.7913929127069275
2020-06-15 00:00:00-04:00,3.7845213708519236
2020-06-16 00:00:00-04:00,3.8292810658592216
2020-06-17 00:00:00-04:00,3.7896791470864115
2020-06-18 00:00:00-04:00,3.7982174730492093
2020-06-19 00:00:00-04:00,3.786243298739863
2020-06-22 00:00:00-04:00,3.7885353481191584
2020-06-23 00:00:00-04:00,3.78929822737329
2020-06-24 00:00:00-04:00,3.720046560888781
2020-06-25 00:00:00-04:00,3.7557645964595006
2020-06-26 00:00:00-04:00,3.7161575053978435
2020-06-29 00:00:00-04:00,3.7342456126585364
2020-06-30 00:00:00-04:00,3.7543838489487134
2020-07-01 00:00:00-04:00,3.738466390852049
2020-07-02 00:00:00-04:00,3.7516167109087992
2020-07-06 00:00:00-04:00,3.7494368452409814
2020-07-07 00:00:00-04:00,3.70273724777734
2020-07-08 00:00:00-04:00,3.6887130240970163
2020-07-09 00:00:00-04:00,3.62113440187538
2020-07-10 00:00:00-04:00,3.6447596061480128
2020-07-13 00:00:00-04:00,3.6347982508207957
2020-07-14 00:00:00-04:00,3.685334474172402
2020-07-15 00:00:00-04:00,3.6891347201452924
2020-07-16 00:00:00-04:00,3.704623902499856
2020-07-17 00:00:00-04:00,3.690726159463543
2020-07-20 00:00:00-04:00,3.7021113983512195
2020-07-21 00:00:00-04:00,3.7575679681723275
2020-07-22 00:00:00-04:00,3.7529958256692555
2020-07-23 00:00:00-04:00,3.725934413527978
2020-07-24 00:00:00-04:00,3.729816279687338
2020-07-27 00:00:00-04:00,3.7199800936392458
2020-07-28 00:00:00-04:00,3.6930556353525295
2020-07-29 00:00:00-04:00,3.718743866899716
2020-07-30 00:00:00-04:00,3.6783512614378973
2020-07-31 00:00:00-04:00,3.6841311074737475
2020-08-03 00:00:00-04:00,3.673832464783277
2020-08-04 00:00:00-04:00,3.7179186188571536
2020-08-05 00:00:00-04:00,3.76409172973914
2020-08-06 00:00:00-04:00,3.7668465745628366
2020-08-07 00:00:00-04:00,3.7251151725831817
2020-08-10 00:00:00-04:00,3.7583611485716624
2020-08-11 00:00:00-04:00,3.7375351865822815
2020-08-12 00:00:00-04:00,3.730835631865314
2020-08-13 00:00:00-04:00,3.6962242222450974
2020-08-14 00:00:00-04:00,3.7077558217978326
2020-08-17 00:00:00-04:00,3.677492175398557
2020-08-18 00:00:00-04:00,3.6734012623158074
2020-08-19 00:00:00-04:00,3.6573071515310365
2020-08-20 00:00:00-04:00,3.6236395966027035
2020-08-21 00:00:00-04:00,3.6074091503417764
2020-08-24 00:00:00-04:00,3.628841593017324
2020-08-25 00:00:00-04:00,3.6299688854732204
2020-08-26 00:00:00-04:00,3.6044083839106396
2020-08-27 00:00:00-04:00,3.642731075331598
2020-08-28 00:00:00-04:00,3.670376073221294
2020-08-31 00:00:00-04:00,3.651369701664193
2020-09-01 00:00:00-04:00,3.648498277844656
2020-09-02 00:00:00-04:00,3.6145282360838262
2020-09-03 00:00:00-04:00,3.601398898029599
2020-09-04 00:00:00-04:00,3.601630774800415
2020-09-08 00:00:00-04:00,3.546597224796433
2020-09-09 00:00:00-04:00,3.5715107279518565
2020-09-10 00:00:00-04:00,3.4747661190704178
2020-09-11 00:00:00-04:00,3.502023056173484
2020-09-14 00:00:00-04:00,3.5050910245636797
2020-09-15 00:00:00-04:00,3.4901731772014704
2020-09-16 00:00:00-04:00,3.547331526412836
2020-09-17 00:00:00-04:00,3.5553754179441843
2020-09-18 00:00:00-04:00,3.543653732247836
2020-09-21 00:00:00-04:00,3.4958581585335557
2020-09-22 00:00:00-04:00,3.4865385511379077
2020-09-23 00:00:00-04:00,3.4311992696009677
2020-09-24 00:00:00-04:00,3.4385933480288586
2020-09-25 00:00:00-04:00,3.460186720095408
2020-09-28 00:00:00-04:00,3.459919608176684
2020-09-29 00:00:00-04:00,3.425962625931824
2020-09-30 00:00:00-04:00,3.419030647156165
2020-10-01 00:00:00-04:00,3.388520024107223
2020-10-02 00:00:00-04:00,3.3870847201513583
2020-10-05 00:00:00-04:00,3.4333958746627022
2020-10-06 00:00:00-04:00,3.420421229213704
2020-10-07 00:00:00-04:00,3.440229383988552
2020-10-08 00:00:00-04:00,3.4660440113429027
2020-10-09 00:00:00-04:00,3.4631196541956197
2020-10-12 00:00:00-04:00,3.480277265881273
2020-10-13 00:00:00-04:00,3.4914680381523064
