Date,Close
2010-01-04 00:00:00-05:00,3.167936150618264
2010-01-05 00:00:00-05:00,3.168596244115481
2010-01-06 00:00:00-05:00,3.184140769733932
2010-01-07 00:00:00-05:00,3.1886766908574837
2010-01-08 00:00:00-05:00,3.1867352434518623
2010-01-11 00:00:00-05:00,3.185600949937522
2010-01-12 00:00:00-05:00,3.1717243319917308
2010-01-13 00:00:00-05:00,3.1821905666059025
2010-01-14 00:00:00-05:00,3.203437052290337
2010-01-15 00:00:00-05:00,3.191581734519455
2010-01-19 00:00:00-05:00,3.2261116224148263
2010-01-20 00:00:00-05:00,3.208837433954998
2010-01-21 00:00:00-05:00,3.142872006722345
2010-01-22 00:00:00-05:00,3.1566513560160487
2010-01-25 00:00:00-05:00,3.175825712500019
2010-01-26 00:00:00-05:00,3.157485581631182
2010-01-27 00:00:00-05:00,3.1497853741140602
2010-01-28 00:00:00-05:00,3.1413478689158403
2010-01-29 00:00:00-05:00,3.135740150730139
2010-02-01 00:00:00-05:00,3.149953441052836
2010-02-02 00:00:00-05:00,3.156985324574641
2010-02-03 00:00:00-05:00,3.1447315009232018
2010-02-04 00:00:00-05:00,3.1194180097889137
2010-02-05 00:00:00-05:00,3.129929288089876
2010-02-08 00:00:00-05:00,3.1185515696925163
2010-02-09 00:00:00-05:00,3.1438868095679466
2010-02-10 00:00:00-05:00,3.15381055369406
2010-02-11 00:00:00-05:00,3.161811984120989
2010-02-12 00:00:00-05:00,3.163968186391564
2010-02-16 00:00:00-05:00,3.1813769439403465
2010-02-17 00:00:00-05:00,3.1965370986478465
2010-02-18 00:00:00-05:00,3.2013789007366307
2010-02-19 00:00:00-05:00,3.207318357620812
2010-02-22 00:00:00-05:00,3.2007348975434415
2010-02-23 00:00:00-05:00,3.1906956792341084
2010-02-24 00:00:00-05:00,3.201218094122233
2010-02-25 00:00:00-05:00,3.1843289865781417
2010-02-26 00:00:00-05:00,3.192159334104912
2010-03-01 00:00:00-05:00,3.2057171178127435
2010-03-02 00:00:00-05:00,3.209237237410198
2010-03-03 00:00:00-05:00,3.2146540503397287
2010-03-04 00:00:00-05:00,3.21417715078012
2010-03-05 00:00:00-05:00,3.2201994114315413
2010-03-08 00:00:00-05:00,3.224299019972007
2010-03-09 00:00:00-05:00,3.2144951346318407
2010-03-10 00:00:00-05:00,3.226656451258722
2010-03-11 00:00:00-05:00,3.2201994114315413
2010-03-12 00:00:00-05:00,3.2338522279201936
2010-03-15 00:00:00-04:00,3.238982235435079
2010-03-16 00:00:00-04:00,3.241305568625582
2010-03-17 00:00:00-04:00,3.2606103423658173
2010-03-18 00:00:00-04:00,3.24285146400729
2010-03-19 00:00:00-04:00,3.2457817856664883
2010-03-22 00:00:00-04:00,3.2542168840839887
2010-03-23 00:00:00-04:00,3.2628841682469596
2010-03-24 00:00:00-04:00,3.2534528228171564
2010-03-25 00:00:00-04:00,3.2420787404963924
2010-03-26 00:00:00-04:00,3.2631868185195816
2010-03-29 00:00:00-04:00,3.258483728185719
2010-03-30 00:00:00-04:00,3.2628841682469596
2010-03-31 00:00:00-04:00,3.2529944448611054
2010-04-01 00:00:00-04:00,3.269674207683685
2010-04-05 00:00:00-04:00,3.275969619887271
2010-04-06 00:00:00-04:00,3.2860798862877214
2010-04-07 00:00:00-04:00,3.283858111396058
2010-04-08 00:00:00-04:00,3.2909499733942873
2010-04-09 00:00:00-04:00,3.3019299052000273
2010-04-12 00:00:00-04:00,3.304982894219985
2010-04-13 00:00:00-04:00,3.3113498165243263
2010-04-14 00:00:00-04:00,3.313942597365824
2010-04-15 00:00:00-04:00,3.3171027645232654
2010-04-16 00:00:00-04:00,3.3088945694174394
2010-04-19 00:00:00-04:00,3.323820383361335
2010-04-20 00:00:00-04:00,3.326807160332426
2010-04-21 00:00:00-04:00,3.3279432143187733
2010-04-22 00:00:00-04:00,3.3245322714655923
2010-04-23 00:00:00-04:00,3.3389474316954693
2010-04-26 00:00:00-04:00,3.3312006729987624
2010-04-27 00:00:00-04:00,3.305998559386192
2010-04-28 00:00:00-04:00,3.3198241553163887
2010-04-29 00:00:00-04:00,3.338526418936679
2010-04-30 00:00:00-04:00,3.3262392999986106
2010-05-03 00:00:00-04:00,3.3390876171477912
2010-05-04 00:00:00-04:00,3.2988675668875413
2010-05-05 00:00:00-04:00,3.284154981244186
2010-05-06 00:00:00-04:00,3.2510412945178
2010-05-07 00:00:00-04:00,3.236104110228767
2010-05-10 00:00:00-04:00,3.286542744427115
2010-05-11 00:00:00-04:00,3.276656548525789
2010-05-12 00:00:00-04:00,3.2947070776431135
2010-05-13 00:00:00-04:00,3.28191129915753
2010-05-14 00:00:00-04:00,3.2562785771161114
2010-05-17 00:00:00-04:00,3.271979125713128
2010-05-18 00:00:00-04:00,3.264540688004839
2010-05-19 00:00:00-04:00,3.2450002494359325
2010-05-20 00:00:00-04:00,3.200520059907615
2010-05-21 00:00:00-04:00,3.2187100243808957
2010-05-24 00:00:00-04:00,3.2000327163346705
2010-05-25 00:00:00-04:00,3.211184272230448
2010-05-26 00:00:00-04:00,3.205381250627428
2010-05-27 00:00:00-04:00,3.2562785771161114
2010-05-28 00:00:00-04:00,3.2404837912947113
2010-06-01 00:00:00-04:00,3.2163141053025726
2010-06-02 00:00:00-04:00,3.2507325805653497
2010-06-03 00:00:00-04:00,3.2387657376040915
2010-06-04 00:00:00-04:00,3.2042496523755886
2010-06-07 00:00:00-04:00,3.183481613098658
2010-06-08 00:00:00-04:00,3.2097369017952326
2010-06-09 00:00:00-04:00,3.206189645923394
2010-06-10 00:00:00-04:00,3.2287090640988536
2010-06-11 00:00:00-04:00,3.2515045560482196
2010-06-14 00:00:00-04:00,3.2404837912947113
2010-06-15 00:00:00-04:00,3.2637784957637455
2010-06-16 00:00:00-04:00,3.27831106202756
2010-06-17 00:00:00-04:00,3.2725837736514305
2010-06-18 00:00:00-04:00,3.2801130519724433
2010-06-21 00:00:00-04:00,3.2823603382429334
2010-06-22 00:00:00-04:00,3.2631682796266626
2010-06-23 00:00:00-04:00,3.2564324597200085
2010-06-24 00:00:00-04:00,3.2253872485289565
2010-06-25 00:00:00-04:00,3.222848559693469
2010-06-28 00:00:00-04:00,3.2218951725692992
2010-06-29 00:00:00-04:00,3.191381624944681
2010-06-30 00:00:00-04:00,3.181662293974229
2010-07-01 00:00:00-04:00,3.192200942252781
2010-07-02 00:00:00-04:00,3.1843078998395
2010-07-06 00:00:00-04:00,3.184142270553873
2010-07-07 00:00:00-04:00,3.224752990660459
2010-07-08 00:00:00-04:00,3.24328949766767
2010-07-09 00:00:00-04:00,3.2490318377429452
2010-07-12 00:00:00-04:00,3.235947367195674
2010-07-13 00:00:00-04:00,3.259959088965525
2010-07-14 00:00:00-04:00,3.2474830927407714
2010-07-15 00:00:00-04:00,3.248722280571961
2010-07-16 00:00:00-04:00,3.215033997092005
2010-07-19 00:00:00-04:00,3.210058686548645
2010-07-20 00:00:00-04:00,3.2493411511086037
2010-07-21 00:00:00-04:00,3.2518135485634243
2010-07-22 00:00:00-04:00,3.2701624778457576
2010-07-23 00:00:00-04:00,3.2948549472444584
2010-07-26 00:00:00-04:00,3.3029522515695757
2010-07-27 00:00:00-04:00,3.31171164636637
2010-07-28 00:00:00-04:00,3.3122926784824287
2010-07-29 00:00:00-04:00,3.3120021698693076
2010-07-30 00:00:00-04:00,3.3214026250594304
2010-08-02 00:00:00-04:00,3.344876279819397
2010-08-03 00:00:00-04:00,3.329288763947173
2010-08-04 00:00:00-04:00,3.3414958440648683
2010-08-05 00:00:00-04:00,3.332568134568361
2010-08-06 00:00:00-04:00,3.3304135418524967
2010-08-09 00:00:00-04:00,3.3335719611925994
2010-08-10 00:00:00-04:00,3.3273896886889576
2010-08-11 00:00:00-04:00,3.293806517576567
2010-08-12 00:00:00-04:00,3.2908192748237313
2010-08-13 00:00:00-04:00,3.2827084733095386
2010-08-16 00:00:00-04:00,3.285720078285607
2010-08-17 00:00:00-04:00,3.3040446724143564
2010-08-18 00:00:00-04:00,3.296784722129965
2010-08-19 00:00:00-04:00,3.27179114747782
2010-08-20 00:00:00-04:00,3.268890011751509
2010-08-23 00:00:00-04:00,3.2629089180539723
2010-08-24 00:00:00-04:00,3.2505265211921746
2010-08-25 00:00:00-04:00,3.2649063019752926
2010-08-26 00:00:00-04:00,3.2676660616985305
2010-08-27 00:00:00-04:00,3.2945516177286485
2010-08-30 00:00:00-04:00,3.2701126105485687
2010-08-31 00:00:00-04:00,3.275443371024291
2010-09-01 00:00:00-04:00,3.310226078779705
2010-09-02 00:00:00-04:00,3.321314412274159
2010-09-03 00:00:00-04:00,3.336577612649412
2010-09-07 00:00:00-04:00,3.3119847227662644
2010-09-08 00:00:00-04:00,3.3239223874393202
2010-09-09 00:00:00-04:00,3.326956659013908
2010-09-10 00:00:00-04:00,3.347803062000212
2010-09-13 00:00:00-04:00,3.360021180109693
2010-09-14 00:00:00-04:00,3.355825136835772
2010-09-15 00:00:00-04:00,3.3598815135745816
2010-09-16 00:00:00-04:00,3.368223291985141
2010-09-17 00:00:00-04:00,3.3657280106658454
2010-09-20 00:00:00-04:00,3.37415900265155
2010-09-21 00:00:00-04:00,3.3676692059811573
2010-09-22 00:00:00-04:00,3.3661441808491657
2010-09-23 00:00:00-04:00,3.357365436647123
2010-09-24 00:00:00-04:00,3.377730563448434
2010-09-27 00:00:00-04:00,3.3758088851652017
2010-09-28 00:00:00-04:00,3.3807427168845603
2010-09-29 00:00:00-04:00,3.3774564406843113
2010-09-30 00:00:00-04:00,3.37608372065279
2010-10-01 00:00:00-04:00,3.380059363769583
2010-10-04 00:00:00-04:00,3.368361535576877
2010-10-05 00:00:00-04:00,3.3924329020003094
2010-10-06 00:00:00-04:00,3.4026506149611797
2010-10-07 00:00:00-04:00,3.3998374715024724
2010-10-08 00:00:00-04:00,3.408652055096424
2010-10-11 00:00:00-04:00,3.405855957394538
2010-10-12 00:00:00-04:00,3.412500611591497
2010-10-13 00:00:00-04:00,3.422254095600943
2010-10-14 00:00:00-04:00,3.4234339131146614
2010-10-15 00:00:00-04:00,3.4291817095976285
2010-10-18 00:00:00-04:00,3.4306133879853067
2010-10-19 00:00:00-04:00,3.4160703594123785
2010-10-20 00:00:00-04:00,3.4381293736345677
2010-10-21 00:00:00-04:00,3.42787817199258
2010-10-22 00:00:00-04:00,3.424743128873744
2010-10-25 00:00:00-04:00,3.4364497564221805
2010-10-26 00:00:00-04:00,3.436061784551904
2010-10-27 00:00:00-04:00,3.4291817095976285
2010-10-28 00:00:00-04:00,3.426964479112193
2010-10-29 00:00:00-04:00,3.428269950079631
2010-11-01 00:00:00-04:00,3.42787817199258
2010-11-02 00:00:00-04:00,3.440450519216518
2010-11-03 00:00:00-04:00,3.443665481544774
2010-11-04 00:00:00-04:00,3.4594599079451847
2010-11-05 00:00:00-04:00,3.4662608818945553
2010-11-08 00:00:00-05:00,3.465881327558286
2010-11-09 00:00:00-05:00,3.4553318598066363
2010-11-10 00:00:00-05:00,3.45226003510985
2010-11-11 00:00:00-05:00,3.453413505396319
2010-11-12 00:00:00-05:00,3.4362396441402403
2010-11-15 00:00:00-05:00,3.4372806882872613
2010-11-16 00:00:00-05:00,3.420486962652659
2010-11-17 00:00:00-05:00,3.4270802155361233
2010-11-18 00:00:00-05:00,3.446218433530639
2010-11-19 00:00:00-05:00,3.44402340924653
2010-11-22 00:00:00-05:00,3.443635805872148
2010-11-23 00:00:00-05:00,3.424975040908159
2010-11-24 00:00:00-05:00,3.4493079355310305
2010-11-26 00:00:00-05:00,3.447249328452622
2010-11-29 00:00:00-05:00,3.4494367456462562
2010-11-30 00:00:00-05:00,3.4514906173910167
2010-12-01 00:00:00-05:00,3.4755704310571494
2010-12-02 00:00:00-05:00,3.4796940010519943
2010-12-03 00:00:00-05:00,3.4872724374476514
2010-12-06 00:00:00-05:00,3.476696749877221
2010-12-07 00:00:00-05:00,3.482930858885979
2010-12-08 00:00:00-05:00,3.475319676993271
2010-12-09 00:00:00-05:00,3.477946284292522
2010-12-10 00:00:00-05:00,3.4885090679821853
2010-12-13 00:00:00-05:00,3.4830551759696906
2010-12-14 00:00:00-05:00,3.4938100566186345
2010-12-15 00:00:00-05:00,3.503232978927285
2010-12-16 00:00:00-05:00,3.4954067045769097
2010-12-17 00:00:00-05:00,3.502136401362585
2010-12-20 00:00:00-05:00,3.506394882019549
2010-12-21 00:00:00-05:00,3.507851120499717
2010-12-22 00:00:00-05:00,3.509788794477506
2010-12-23 00:00:00-05:00,3.5117232903914766
2010-12-27 00:00:00-05:00,3.5143771691584136
2010-12-28 00:00:00-05:00,3.524324434168688
2010-12-29 00:00:00-05:00,3.528608778980927
2010-12-30 00:00:00-05:00,3.524324434168688
2010-12-31 00:00:00-05:00,3.5269445636986614
2011-01-03 00:00:00-05:00,3.5342927229109207
2011-01-04 00:00:00-05:00,3.519303173386917
2011-01-05 00:00:00-05:00,3.5249207868369052
2011-01-06 00:00:00-05:00,3.521338339444017
2011-01-07 00:00:00-05:00,3.5059091120752406
2011-01-10 00:00:00-05:00,3.5090623498066655
2011-01-11 00:00:00-05:00,3.5023805211962924
2011-01-12 00:00:00-05:00,3.5142562315614416
2011-01-13 00:00:00-05:00,3.5085784452746225
2011-01-14 00:00:00-05:00,3.5158209310687054
2011-01-18 00:00:00-05:00,3.5164227148673937
2011-01-19 00:00:00-05:00,3.5116026007204533
2011-01-20 00:00:00-05:00,3.494178811474889
2011-01-21 00:00:00-05:00,3.503842039251922
2011-01-24 00:00:00-05:00,3.517863641793921
2011-01-25 00:00:00-05:00,3.5210993684908196
2011-01-26 00:00:00-05:00,3.5354728084394185
2011-01-27 00:00:00-05:00,3.5251591834288507
2011-01-28 00:00:00-05:00,3.5169027260153154
2011-01-31 00:00:00-05:00,3.529439513612248
2011-02-01 00:00:00-05:00,3.549759200153238
2011-02-02 00:00:00-05:00,3.5397095340906937
2011-02-03 00:00:00-05:00,3.544980653664063
2011-02-04 00:00:00-05:00,3.5478966406268007
2011-02-07 00:00:00-05:00,3.5506884141042754
2011-02-08 00:00:00-05:00,3.5580950088750214
2011-02-09 00:00:00-05:00,3.555323865116885
2011-02-10 00:00:00-05:00,3.567162413235765
2011-02-11 00:00:00-05:00,3.5769409458617094
2011-02-14 00:00:00-05:00,3.578184504509456
2011-02-15 00:00:00-05:00,3.5766014861413407
2011-02-16 00:00:00-05:00,3.5867990669317575
2011-02-17 00:00:00-05:00,3.5952197231690164
2011-02-18 00:00:00-05:00,3.602903889695068
2011-02-22 00:00:00-05:00,3.568137263418325
2011-02-23 00:00:00-05:00,3.5622622745193238
2011-02-24 00:00:00-05:00,3.5553052269713032
2011-02-25 00:00:00-05:00,3.5723785980136387
2011-02-28 00:00:00-05:00,3.5831856267222477
2011-03-01 00:00:00-05:00,3.575917949922852
2011-03-02 00:00:00-05:00,3.5789902966724263
2011-03-03 00:00:00-05:00,3.5984567461803536
2011-03-04 00:00:00-05:00,3.585332876246562
2011-03-07 00:00:00-05:00,3.5734071459840537
2011-03-08 00:00:00-05:00,3.5882643765954367
2011-03-09 00:00:00-05:00,3.579444393402618
2011-03-10 00:00:00-05:00,3.561106248973618
2011-03-11 00:00:00-05:00,3.5731785879024627
2011-03-14 00:00:00-04:00,3.5770567753229026
2011-03-15 00:00:00-04:00,3.5651463972097597
2011-03-16 00:00:00-04:00,3.550290191381458
2011-03-17 00:00:00-04:00,3.5692854090517847
2011-03-18 00:00:00-04:00,3.572721529191484
2011-03-21 00:00:00-04:00,3.5852196940420265
2011-03-22 00:00:00-04:00,3.5798989221113566
2011-03-23 00:00:00-04:00,3.5820535513697784
2011-03-24 00:00:00-04:00,3.586574077823767
2011-03-25 00:00:00-04:00,3.5951078640142384
2011-03-28 00:00:00-04:00,3.5944369702623393
2011-03-29 00:00:00-04:00,3.6078837228139573
2011-03-30 00:00:00-04:00,3.6651586306123884
2011-03-31 00:00:00-04:00,3.657625215187388
2011-04-01 00:00:00-04:00,3.6564687975270043
2011-04-04 00:00:00-04:00,3.670979377544653
2011-04-05 00:00:00-04:00,3.6695273154661736
2011-04-06 00:00:00-04:00,3.670149594473695
2011-04-07 00:00:00-04:00,3.6666167529925113
2011-04-08 00:00:00-04:00,3.6589892218334534
2011-04-11 00:00:00-04:00,3.6547852416684465
2011-04-12 00:00:00-04:00,3.642277955042287
2011-04-13 00:00:00-04:00,3.6262591562994304
2011-04-14 00:00:00-04:00,3.6286404536319137
2011-04-15 00:00:00-04:00,3.630369073203721
2011-04-18 00:00:00-04:00,3.616675930258075
2011-04-19 00:00:00-04:00,3.635643697714263
2011-04-20 00:00:00-04:00,3.650563117045545
2011-04-21 00:00:00-04:00,3.65162007312656
2011-04-25 00:00:00-04:00,3.6387522749790624
2011-04-26 00:00:00-04:00,3.644515586108052
2011-04-27 00:00:00-04:00,3.6405706174929637
2011-04-28 00:00:00-04:00,3.646322891448296
2011-04-29 00:00:00-04:00,3.6519368828542884
2011-05-02 00:00:00-04:00,3.646216804389733
2011-05-03 00:00:00-04:00,3.6244150879416615
2011-05-04 00:00:00-04:00,3.60567382406517
2011-05-05 00:00:00-04:00,3.6040125144000017
2011-05-06 00:00:00-04:00,3.6120099691501832
2011-05-09 00:00:00-04:00,3.6218083300429678
2011-05-10 00:00:00-04:00,3.6272705972769224
2011-05-11 00:00:00-04:00,3.607575090125672
2011-05-12 00:00:00-04:00,3.604458401364874
2011-05-13 00:00:00-04:00,3.590540189460211
2011-05-16 00:00:00-04:00,3.5922344127546557
2011-05-17 00:00:00-04:00,3.5786003134342073
2011-05-18 00:00:00-04:00,3.59741122879533
2011-05-19 00:00:00-04:00,3.5957258655748277
2011-05-20 00:00:00-04:00,3.585780930867442
2011-05-23 00:00:00-04:00,3.5698686557688863
2011-05-24 00:00:00-04:00,3.5614093015233745
2011-05-25 00:00:00-04:00,3.5775705934318314
2011-05-26 00:00:00-04:00,3.5749332380861896
2011-05-27 00:00:00-04:00,3.5829375579732807
2011-05-31 00:00:00-04:00,3.5931359166450547
2011-06-01 00:00:00-04:00,3.57102211254676
2011-06-02 00:00:00-04:00,3.5641985506173706
2011-06-03 00:00:00-04:00,3.5497035206889387
2011-06-06 00:00:00-04:00,3.5398831110698628
2011-06-07 00:00:00-04:00,3.5584955687078343
2011-06-08 00:00:00-04:00,3.5440360873371057
2011-06-09 00:00:00-04:00,3.5535821512062316
2011-06-10 00:00:00-04:00,3.5400017637073224
2011-06-13 00:00:00-04:00,3.5367865286024585
2011-06-14 00:00:00-04:00,3.5563924160380402
2011-06-15 00:00:00-04:00,3.5383356858543666
2011-06-16 00:00:00-04:00,3.5400017637073224
2011-06-17 00:00:00-04:00,3.5475822151215013
2011-06-20 00:00:00-04:00,3.555573866071765
2011-06-21 00:00:00-04:00,3.5821402470018957
2011-06-22 00:00:00-04:00,3.5822543087520797
2011-06-23 00:00:00-04:00,3.573899412171306
2011-06-24 00:00:00-04:00,3.5756219332668704
2011-06-27 00:00:00-04:00,3.573324828272645
2011-06-28 00:00:00-04:00,3.5904268584919397
2011-06-29 00:00:00-04:00,3.5980845169022437
2011-06-30 00:00:00-04:00,3.6164258820335524
2011-07-01 00:00:00-04:00,3.6280331440130142
2011-07-05 00:00:00-04:00,3.6241061235097383
2011-07-06 00:00:00-04:00,3.6351934921287077
2011-07-07 00:00:00-04:00,3.644446695490722
2011-07-08 00:00:00-04:00,3.6309682967783337
2011-07-11 00:00:00-04:00,3.610681579689175
2011-07-12 00:00:00-04:00,3.6060177527506627
2011-07-13 00:00:00-04:00,3.606907853261331
2011-07-14 00:00:00-04:00,3.5903137251708306
2011-07-15 00:00:00-04:00,3.6040125144000017
2011-07-18 00:00:00-04:00,3.5932485212747354
2011-07-19 00:00:00-04:00,3.5992053791827177
2011-07-20 00:00:00-04:00,3.6004374097095986
2011-07-21 00:00:00-04:00,3.607463880408497
2011-07-22 00:00:00-04:00,3.5958381789579645
2011-07-25 00:00:00-04:00,3.5914435366863495
2011-07-26 00:00:00-04:00,3.569060637180581
2011-07-27 00:00:00-04:00,3.550527764118689
2011-07-28 00:00:00-04:00,3.545219491006343
2011-07-29 00:00:00-04:00,3.54107132612224
2011-08-01 00:00:00-04:00,3.5375021041321184
2011-08-02 00:00:00-04:00,3.511175059935559
2011-08-03 00:00:00-04:00,3.522370141869954
2011-08-04 00:00:00-04:00,3.460474193304085
2011-08-05 00:00:00-04:00,3.46304518947946
2011-08-08 00:00:00-04:00,3.40499652428193
2011-08-09 00:00:00-04:00,3.4630453090099325
2011-08-10 00:00:00-04:00,3.4065034471072226
2011-08-11 00:00:00-04:00,3.4315095064923615
2011-08-12 00:00:00-04:00,3.433510068933752
2011-08-15 00:00:00-04:00,3.454080442457805
2011-08-16 00:00:00-04:00,3.43537356230408
2011-08-17 00:00:00-04:00,3.4367027164920456
2011-08-18 00:00:00-04:00,3.369557818752137
2011-08-19 00:00:00-04:00,3.347588094701745
2011-08-22 00:00:00-04:00,3.348458678325311
2011-08-23 00:00:00-04:00,3.3798718095379026
2011-08-24 00:00:00-04:00,3.3903594824303593
2011-08-25 00:00:00-04:00,3.3790286149795667
2011-08-26 00:00:00-04:00,3.3965991438639342
2011-08-29 00:00:00-04:00,3.439222499817598
2011-08-30 00:00:00-04:00,3.4522511543145007
2011-08-31 00:00:00-04:00,3.453688694964962
2011-09-01 00:00:00-04:00,3.4331101163858437
2011-09-02 00:00:00-04:00,3.4134597657445407
2011-09-06 00:00:00-04:00,3.408417714711621
2011-09-07 00:00:00-04:00,3.4328436799147686
2011-09-08 00:00:00-04:00,3.430575111361873
2011-09-09 00:00:00-04:00,3.4070504657837968
2011-09-12 00:00:00-04:00,3.4073243052816258
2011-09-13 00:00:00-04:00,3.428568167933199
2011-09-14 00:00:00-04:00,3.4459557104401752
2011-09-15 00:00:00-04:00,3.464468143202669
2011-09-16 00:00:00-04:00,3.480102427908511
2011-09-19 00:00:00-04:00,3.468334742470199
2011-09-20 00:00:00-04:00,3.4657585523082393
2011-09-21 00:00:00-04:00,3.4130517742695776
2011-09-22 00:00:00-04:00,3.365145054918818
2011-09-23 00:00:00-04:00,3.3467166182255434
2011-09-26 00:00:00-04:00,3.3979810662807624
2011-09-27 00:00:00-04:00,3.4262896202317474
2011-09-28 00:00:00-04:00,3.3849196548985128
2011-09-29 00:00:00-04:00,3.3967376072753903
2011-09-30 00:00:00-04:00,3.3731015533231576
2011-10-03 00:00:00-04:00,3.344680192319347
2011-10-04 00:00:00-04:00,3.373243504726258
2011-10-05 00:00:00-04:00,3.4023887645791118
2011-10-06 00:00:00-04:00,3.4153607759076037
2011-10-07 00:00:00-04:00,3.4122352916086993
2011-10-10 00:00:00-04:00,3.451728317097369
2011-10-11 00:00:00-04:00,3.4487153528341783
2011-10-12 00:00:00-04:00,3.4688495653321683
2011-10-13 00:00:00-04:00,3.467691049161402
2011-10-14 00:00:00-04:00,3.493617513016796
2011-10-17 00:00:00-04:00,3.4698775855942303
2011-10-18 00:00:00-04:00,3.506332499605372
2011-10-19 00:00:00-04:00,3.4826426790897944
2011-10-20 00:00:00-04:00,3.505713271925529
2011-10-21 00:00:00-04:00,3.542222020577327
2011-10-24 00:00:00-04:00,3.5507899158206118
2011-10-25 00:00:00-04:00,3.528384304034439
2011-10-26 00:00:00-04:00,3.556225166083138
2011-10-27 00:00:00-04:00,3.6030716178262434
2011-10-28 00:00:00-04:00,3.6080072939836887
2011-10-31 00:00:00-04:00,3.5743256687025733
2011-11-01 00:00:00-04:00,3.553156898344191
2011-11-02 00:00:00-04:00,3.5776760113197885
2011-11-03 00:00:00-04:00,3.6000313138477846
2011-11-04 00:00:00-04:00,3.5983377314095404
2011-11-07 00:00:00-05:00,3.60273415843288
2011-11-08 00:00:00-05:00,3.6145517606045705
2011-11-09 00:00:00-05:00,3.5692349983306926
2011-11-10 00:00:00-05:00,3.5785566531009443
2011-11-11 00:00:00-05:00,3.600240582708175
2011-11-14 00:00:00-05:00,3.5908905187470195
2011-11-15 00:00:00-05:00,3.5915773549261645
2011-11-16 00:00:00-05:00,3.5634817242695425
2011-11-17 00:00:00-05:00,3.5369950273820305
2011-11-18 00:00:00-05:00,3.547698200549644
2011-11-21 00:00:00-05:00,3.526298365558293
2011-11-22 00:00:00-05:00,3.519431749552937
2011-11-23 00:00:00-05:00,3.4982914788533446
2011-11-25 00:00:00-05:00,3.4967820663927935
2011-11-28 00:00:00-05:00,3.535059136072704
2011-11-29 00:00:00-05:00,3.5421806079426577
2011-11-30 00:00:00-05:00,3.5961464787227984
2011-12-01 00:00:00-05:00,3.5823769504067924
2011-12-02 00:00:00-05:00,3.5627755268116172
2011-12-05 00:00:00-05:00,3.566303909179333
2011-12-06 00:00:00-05:00,3.569469080351393
2011-12-07 00:00:00-05:00,3.560416372631844
2011-12-08 00:00:00-05:00,3.5360274390690902
2011-12-09 00:00:00-05:00,3.551756786064969
2011-12-12 00:00:00-05:00,3.5346950295411017
2011-12-13 00:00:00-05:00,3.5205384251797835
2011-12-14 00:00:00-05:00,3.506178072082715
2011-12-15 00:00:00-05:00,3.505180186321734
2011-12-16 00:00:00-05:00,3.514497410916023
2011-12-19 00:00:00-05:00,3.4927468366880343
2011-12-20 00:00:00-05:00,3.513384366864505
2011-12-21 00:00:00-05:00,3.5303230899455476
2011-12-22 00:00:00-05:00,3.532754341788426
2011-12-23 00:00:00-05:00,3.546621523296804
2011-12-27 00:00:00-05:00,3.551995213608023
2011-12-28 00:00:00-05:00,3.5379617912756403
2011-12-29 00:00:00-05:00,3.552352201775388
2011-12-30 00:00:00-05:00,3.546381700942331
2012-01-03 00:00:00-05:00,3.565716421675391
2012-01-04 00:00:00-05:00,3.5678289237978196
2012-01-05 00:00:00-05:00,3.558879568615222
2012-01-06 00:00:00-05:00,3.561478848714855
2012-01-09 00:00:00-05:00,3.5563924160380402
2012-01-10 00:00:00-05:00,3.577628579974919
2012-01-11 00:00:00-05:00,3.5829545218991745
2012-01-12 00:00:00-05:00,3.5989916157483353
2012-01-13 00:00:00-05:00,3.5935218469611976
2012-01-17 00:00:00-05:00,3.5994461082717666
2012-01-18 00:00:00-05:00,3.620352684486169
2012-01-19 00:00:00-05:00,3.596260418835308
2012-01-20 00:00:00-05:00,3.6093916944586963
2012-01-23 00:00:00-05:00,3.6027344702742288
2012-01-24 00:00:00-05:00,3.6046572011997235
2012-01-25 00:00:00-05:00,3.614999032104436
2012-01-26 00:00:00-05:00,3.6083793629690946
2012-01-27 00:00:00-05:00,3.6109648220103376
2012-01-30 00:00:00-05:00,3.6155580712041013
2012-01-31 00:00:00-05:00,3.6167863252595995
2012-02-01 00:00:00-05:00,3.6309741578536694
2012-02-02 00:00:00-05:00,3.6192392370007345
2012-02-03 00:00:00-05:00,3.634928706781676
2012-02-06 00:00:00-05:00,3.6311945295673813
2012-02-07 00:00:00-05:00,3.6354767177250187
2012-02-08 00:00:00-05:00,3.639194968305984
2012-02-09 00:00:00-05:00,3.6437694006249033
2012-02-10 00:00:00-05:00,3.6306440651730596
2012-02-13 00:00:00-05:00,3.633393160411708
2012-02-14 00:00:00-05:00,3.6272255623748655
2012-02-15 00:00:00-05:00,3.627114386456104
2012-02-16 00:00:00-05:00,3.643217132208822
2012-02-17 00:00:00-05:00,3.6510634088598426
2012-02-21 00:00:00-05:00,3.6494338163750246
2012-02-22 00:00:00-05:00,3.647583728893625
2012-02-23 00:00:00-05:00,3.6519318360633624
2012-02-24 00:00:00-05:00,3.646166742516532
2012-02-27 00:00:00-05:00,3.6599255056469957
2012-02-28 00:00:00-05:00,3.659817906570084
2012-02-29 00:00:00-05:00,3.64157419271358
2012-03-01 00:00:00-05:00,3.656908248057433
2012-03-02 00:00:00-05:00,3.655179962321896
2012-03-05 00:00:00-05:00,3.6456210747895414
2012-03-06 00:00:00-05:00,3.632326238341045
2012-03-07 00:00:00-05:00,3.6338738009820957
2012-03-08 00:00:00-05:00,3.6599255056469957
2012-03-09 00:00:00-05:00,3.658094843273994
2012-03-12 00:00:00-04:00,3.661538202046964
2012-03-13 00:00:00-04:00,3.674558300862136
2012-03-14 00:00:00-04:00,3.6678563672414506
2012-03-15 00:00:00-04:00,3.667428718028466
2012-03-16 00:00:00-04:00,3.666894727845621
2012-03-19 00:00:00-04:00,3.6761481689630826
2012-03-20 00:00:00-04:00,3.6705213967850465
2012-03-21 00:00:00-04:00,3.672754352079143
2012-03-22 00:00:00-04:00,3.660140767222296
2012-03-23 00:00:00-04:00,3.6675360858898607
2012-03-26 00:00:00-04:00,3.6861547218405675
2012-03-27 00:00:00-04:00,3.6896076053903104
2012-03-28 00:00:00-04:00,3.679529929221429
2012-03-29 00:00:00-04:00,3.6890851405090883
2012-03-30 00:00:00-04:00,3.6902339936168587
2012-04-02 00:00:00-04:00,3.709668535424832
2012-04-03 00:00:00-04:00,3.6889807291978443
2012-04-04 00:00:00-04:00,3.670414640423507
2012-04-05 00:00:00-04:00,3.695336206412339
2012-04-09 00:00:00-04:00,3.673922497075888
2012-04-10 00:00:00-04:00,3.6507375045890087
2012-04-11 00:00:00-04:00,3.676994223373919
2012-04-12 00:00:00-04:00,3.7009281581100217
2012-04-13 00:00:00-04:00,3.689398785638119
2012-04-16 00:00:00-04:00,3.701651264021157
2012-04-17 00:00:00-04:00,3.716402192104276
2012-04-18 00:00:00-04:00,3.7177235971357017
2012-04-19 00:00:00-04:00,3.7430918341564787
2012-04-20 00:00:00-04:00,3.7459593774773476
2012-04-23 00:00:00-04:00,3.743190926718904
2012-04-24 00:00:00-04:00,3.752944214735007
2012-04-25 00:00:00-04:00,3.7739956989067625
2012-04-26 00:00:00-04:00,3.78402480807382
2012-04-27 00:00:00-04:00,3.788197859575478
2012-04-30 00:00:00-04:00,3.7842150360115077
2012-05-01 00:00:00-04:00,3.8011740433575563
2012-05-02 00:00:00-04:00,3.8025746237928075
2012-05-03 00:00:00-04:00,3.8026673984277104
2012-05-04 00:00:00-04:00,3.788292409293741
2012-05-07 00:00:00-04:00,3.799865557782576
2012-05-08 00:00:00-04:00,3.8017446314494334
2012-05-09 00:00:00-04:00,3.7963790320457687
2012-05-10 00:00:00-04:00,3.7943946723890463
2012-05-11 00:00:00-04:00,3.789274161690017
2012-05-14 00:00:00-04:00,3.769399061273987
2012-05-15 00:00:00-04:00,3.760241990396627
2012-05-16 00:00:00-04:00,3.7560247514578724
2012-05-17 00:00:00-04:00,3.7271092857286265
2012-05-18 00:00:00-04:00,3.7139734597621925
2012-05-21 00:00:00-04:00,3.734065508449171
2012-05-22 00:00:00-04:00,3.731248804328452
2012-05-23 00:00:00-04:00,3.7466441732951674
2012-05-24 00:00:00-04:00,3.779817985851053
2012-05-25 00:00:00-04:00,3.7699811183885767
2012-05-29 00:00:00-04:00,3.7884181163529447
2012-05-30 00:00:00-04:00,3.7610244467626806
2012-05-31 00:00:00-04:00,3.77249755776047
2012-06-01 00:00:00-04:00,3.7282218083636534
2012-06-04 00:00:00-04:00,3.7161237252070265
2012-06-05 00:00:00-04:00,3.7285246089690194
2012-06-06 00:00:00-04:00,3.7566141975551983
2012-06-07 00:00:00-04:00,3.7641488718027287
2012-06-08 00:00:00-04:00,3.774815167780981
2012-06-11 00:00:00-04:00,3.7580865614804955
2012-06-12 00:00:00-04:00,3.7793381607702687
2012-06-13 00:00:00-04:00,3.7575960143388127
2012-06-14 00:00:00-04:00,3.7561229274400487
2012-06-15 00:00:00-04:00,3.7792424120774943
2012-06-18 00:00:00-04:00,3.7853686337541257
2012-06-19 00:00:00-04:00,3.7986417552630725
2012-06-20 00:00:00-04:00,3.7973223344572142
2012-06-21 00:00:00-04:00,3.7625879681270447
2012-06-22 00:00:00-04:00,3.7797218476627834
2012-06-25 00:00:00-04:00,3.7518884237825056
2012-06-26 00:00:00-04:00,3.7666799237095296
2012-06-27 00:00:00-04:00,3.772884053158448
2012-06-28 00:00:00-04:00,3.7730777270202496
2012-06-29 00:00:00-04:00,3.79807657564537
2012-07-02 00:00:00-04:00,3.784604829528596
2012-07-03 00:00:00-04:00,3.786322720762143
2012-07-05 00:00:00-04:00,3.792121877749145
2012-07-06 00:00:00-04:00,3.7928801360098454
2012-07-09 00:00:00-04:00,3.771820853107178
2012-07-10 00:00:00-04:00,3.759849955085336
2012-07-11 00:00:00-04:00,3.747437337779894
2012-07-12 00:00:00-04:00,3.7452542818234273
2012-07-13 00:00:00-04:00,3.77153044572275
2012-07-16 00:00:00-04:00,3.75975232202946
2012-07-17 00:00:00-04:00,3.779145957127915
2012-07-18 00:00:00-04:00,3.7797218476627834
2012-07-19 00:00:00-04:00,3.8516473569792837
2012-07-20 00:00:00-04:00,3.868387452553054
2012-07-23 00:00:00-04:00,3.840781568557471
2012-07-24 00:00:00-04:00,3.8208090009420856
2012-07-25 00:00:00-04:00,3.8109037338879452
2012-07-26 00:00:00-04:00,3.817764724271804
2012-07-27 00:00:00-04:00,3.837797169789584
2012-07-30 00:00:00-04:00,3.8429459618284394
2012-07-31 00:00:00-04:00,3.829064904049994
2012-08-01 00:00:00-04:00,3.816192334967448
2012-08-02 00:00:00-04:00,3.812298349135328
2012-08-03 00:00:00-04:00,3.826686943286535
2012-08-06 00:00:00-04:00,3.8330767461484525
2012-08-07 00:00:00-04:00,3.847709800701801
2012-08-08 00:00:00-04:00,3.8493311667942267
2012-08-09 00:00:00-04:00,3.8516686708341856
2012-08-10 00:00:00-04:00,3.8467177516241104
2012-08-13 00:00:00-04:00,3.8405626342455754
2012-08-14 00:00:00-04:00,3.825376080616829
2012-08-15 00:00:00-04:00,3.834095610070973
2012-08-16 00:00:00-04:00,3.839654676162751
2012-08-17 00:00:00-04:00,3.8415608052766324
2012-08-20 00:00:00-04:00,3.8316255061247717
2012-08-21 00:00:00-04:00,3.8160222032879734
2012-08-22 00:00:00-04:00,3.8487907596475543
2012-08-23 00:00:00-04:00,3.8300665796410907
2012-08-24 00:00:00-04:00,3.8315335605108682
2012-08-27 00:00:00-04:00,3.8336384998648483
2012-08-28 00:00:00-04:00,3.829148622564525
2012-08-29 00:00:00-04:00,3.836650700970932
2012-08-30 00:00:00-04:00,3.8254683445291215
2012-08-31 00:00:00-04:00,3.8394726574384364
2012-09-04 00:00:00-04:00,3.8225146726395622
2012-09-05 00:00:00-04:00,3.8280461265776737
2012-09-06 00:00:00-04:00,3.866198338047251
2012-09-07 00:00:00-04:00,3.8674364570518125
2012-09-10 00:00:00-04:00,3.890588560380746
2012-09-11 00:00:00-04:00,3.89127932115787
2012-09-12 00:00:00-04:00,3.890415971016796
2012-09-13 00:00:00-04:00,3.9143982645408055
2012-09-14 00:00:00-04:00,3.916588449866766
2012-09-17 00:00:00-04:00,3.9137232194011284
2012-09-18 00:00:00-04:00,3.904823383144207
2012-09-19 00:00:00-04:00,3.9030333633258385
2012-09-20 00:00:00-04:00,3.9126256222800464
2012-09-21 00:00:00-04:00,3.9060143892088424
2012-09-24 00:00:00-04:00,3.899359002150398
2012-09-25 00:00:00-04:00,3.8840032488083778
2012-09-26 00:00:00-04:00,3.8802580834436564
2012-09-27 00:00:00-04:00,3.885740689988098
2012-09-28 00:00:00-04:00,3.8823503386720573
2012-10-01 00:00:00-04:00,3.888513722959278
2012-10-02 00:00:00-04:00,3.8805199139205104
2012-10-03 00:00:00-04:00,3.8976452365526666
2012-10-04 00:00:00-04:00,3.9011552196927552
2012-10-05 00:00:00-04:00,3.9089864019302736
2012-10-08 00:00:00-04:00,3.9071192628198212
2012-10-09 00:00:00-04:00,3.88989724412251
2012-10-10 00:00:00-04:00,3.886868101091404
2012-10-11 00:00:00-04:00,3.8877346747370356
2012-10-12 00:00:00-04:00,3.877024244962278
2012-10-15 00:00:00-04:00,3.8936067046399874
2012-10-16 00:00:00-04:00,3.9079683946144748
2012-10-17 00:00:00-04:00,3.917681860105567
2012-10-18 00:00:00-04:00,3.9186901076582954
2012-10-19 00:00:00-04:00,3.907204361777694
2012-10-22 00:00:00-04:00,3.9069492732215947
2012-10-23 00:00:00-04:00,3.8884270965362195
2012-10-24 00:00:00-04:00,3.9024363367743833
2012-10-25 00:00:00-04:00,3.8925731448819514
2012-10-26 00:00:00-04:00,3.893434557709709
2012-10-31 00:00:00-04:00,3.901667909746383
2012-11-01 00:00:00-04:00,3.941190854413333
2012-11-02 00:00:00-04:00,3.92563492800177
2012-11-05 00:00:00-05:00,3.9410265595419833
2012-11-06 00:00:00-05:00,3.952538336721102
2012-11-07 00:00:00-05:00,3.9364223829799734
2012-11-08 00:00:00-05:00,3.9109854800801287
2012-11-09 00:00:00-05:00,3.9090278016240823
2012-11-12 00:00:00-05:00,3.909794036916448
2012-11-13 00:00:00-05:00,3.909623966092705
2012-11-14 00:00:00-05:00,3.899870296897074
2012-11-15 00:00:00-05:00,3.8907151381604668
2012-11-16 00:00:00-05:00,3.893920378844775
2012-11-19 00:00:00-05:00,3.9315195125172386
2012-11-20 00:00:00-05:00,3.9439372550522376
2012-11-21 00:00:00-05:00,3.945581010040838
2012-11-23 00:00:00-05:00,3.9587991625169354
2012-11-26 00:00:00-05:00,3.9558767764192053
2012-11-27 00:00:00-05:00,3.9508241605991916
2012-11-28 00:00:00-05:00,3.946812313464555
2012-11-29 00:00:00-05:00,3.9528646774891723
2012-11-30 00:00:00-05:00,3.966067763902447
2012-12-03 00:00:00-05:00,3.93890586843965
2012-12-04 00:00:00-05:00,3.933682936002393
2012-12-05 00:00:00-05:00,3.9265928613824332
2012-12-06 00:00:00-05:00,3.9575014028004665
2012-12-07 00:00:00-05:00,3.942455029010661
2012-12-10 00:00:00-05:00,3.9626016432644087
2012-12-11 00:00:00-05:00,3.972244857724709
2012-12-12 00:00:00-05:00,3.9683187052505877
2012-12-13 00:00:00-05:00,3.9736034834577794
2012-12-14 00:00:00-05:00,4.010607003564042
2012-12-17 00:00:00-05:00,4.012683007317738
2012-12-18 00:00:00-05:00,4.029967635557822
2012-12-19 00:00:00-05:00,4.02041064249099
2012-12-20 00:00:00-05:00,4.044357516991367
2012-12-21 00:00:00-05:00,4.035913316652502
2012-12-24 00:00:00-05:00,4.0506622660953875
2012-12-26 00:00:00-05:00,4.046958307892383
2012-12-27 00:00:00-05:00,4.034862341784082
2012-12-28 00:00:00-05:00,4.031701961332871
2012-12-31 00:00:00-05:00,4.051475212764952
2013-01-02 00:00:00-05:00,4.074842579425099
2013-01-03 00:00:00-05:00,4.069051859195281
2013-01-04 00:00:00-05:00,4.081460815269274
2013-01-07 00:00:00-05:00,4.072747077910427
2013-01-08 00:00:00-05:00,4.086895264283369
2013-01-09 00:00:00-05:00,4.09520402554134
2013-01-10 00:00:00-05:00,4.097817465035876
2013-01-11 00:00:00-05:00,4.100142654528027
2013-01-14 00:00:00-05:00,4.092584247602722
2013-01-15 00:00:00-05:00,4.086253112269142
2013-01-16 00:00:00-05:00,4.079019809304165
2013-01-17 00:00:00-05:00,4.099297612707996
2013-01-18 00:00:00-05:00,4.104565825773149
2013-01-22 00:00:00-05:00,4.1048460844989645
2013-01-23 00:00:00-05:00,4.10931863531603
2013-01-24 00:00:00-05:00,4.113285594445619
2013-01-25 00:00:00-05:00,4.114881510854944
2013-01-28 00:00:00-05:00,4.085253631164502
2013-01-29 00:00:00-05:00,4.09279663221173
2013-01-30 00:00:00-05:00,4.086895264283369
2013-01-31 00:00:00-05:00,4.069922383044736
2013-02-01 00:00:00-05:00,4.089245575750082
2013-02-04 00:00:00-05:00,4.077653300541538
2013-02-05 00:00:00-05:00,4.073542793983032
2013-02-06 00:00:00-05:00,4.073253232591202
2013-02-07 00:00:00-05:00,4.070647761972719
2013-02-08 00:00:00-05:00,4.0772216793666995
2013-02-11 00:00:00-05:00,4.080600089097427
2013-02-12 00:00:00-05:00,4.059569787201104
2013-02-13 00:00:00-05:00,4.07887602359537
2013-02-14 00:00:00-05:00,4.0780853817048
2013-02-15 00:00:00-05:00,4.080887144585535
2013-02-19 00:00:00-05:00,4.054131515234308
2013-02-20 00:00:00-05:00,4.027050920011543
2013-02-21 00:00:00-05:00,4.016117950080907
2013-02-22 00:00:00-05:00,4.033191552682313
2013-02-25 00:00:00-05:00,4.017807671233884
2013-02-26 00:00:00-05:00,4.035908530962282
2013-02-27 00:00:00-05:00,4.050721109900965
2013-02-28 00:00:00-05:00,4.050721109900965
2013-03-01 00:00:00-05:00,4.051834836164838
2013-03-04 00:00:00-05:00,4.057603808738047
2013-03-05 00:00:00-05:00,4.062239433836409
2013-03-06 00:00:00-05:00,4.056570774382886
2013-03-07 00:00:00-05:00,4.05671852924213
2013-03-08 00:00:00-05:00,4.070427885367729
2013-03-11 00:00:00-04:00,4.073626595323532
2013-03-12 00:00:00-04:00,4.0834489458856
2013-03-13 00:00:00-04:00,4.10040930500806
2013-03-14 00:00:00-04:00,4.105413911862002
2013-03-15 00:00:00-04:00,4.098853526242165
2013-03-18 00:00:00-04:00,4.097437308926489
2013-03-19 00:00:00-04:00,4.095805286836437
2013-03-20 00:00:00-04:00,4.096799039084575
2013-03-21 00:00:00-04:00,4.070063618538936
2013-03-22 00:00:00-04:00,4.060402692329792
2013-03-25 00:00:00-04:00,4.04498679123939
2013-03-26 00:00:00-04:00,4.046106184800977
2013-03-27 00:00:00-04:00,4.0414701985388755
2013-03-28 00:00:00-04:00,4.045360106184231
2013-04-01 00:00:00-04:00,4.047001371616369
2013-04-02 00:00:00-04:00,4.043491801781657
2013-04-03 00:00:00-04:00,4.036209917341899
2013-04-04 00:00:00-04:00,4.045061398588196
2013-04-05 00:00:00-04:00,4.028722351348785
2013-04-08 00:00:00-04:00,4.0265948495994275
2013-04-09 00:00:00-04:00,4.035682296713955
2013-04-10 00:00:00-04:00,4.050721109900965
2013-04-11 00:00:00-04:00,4.072391908752999
2013-04-12 00:00:00-04:00,4.062459674043544
2013-04-15 00:00:00-04:00,4.026518715577522
2013-04-16 00:00:00-04:00,4.049904159870794
2013-04-17 00:00:00-04:00,4.033795738746481
2013-04-18 00:00:00-04:00,4.094242768202561
2013-04-19 00:00:00-04:00,4.100903864297464
2013-04-22 00:00:00-04:00,4.114651836368461
2013-04-23 00:00:00-04:00,4.123321534144641
2013-04-24 00:00:00-04:00,4.124564224442002
2013-04-25 00:00:00-04:00,4.1377882391980165
2013-04-26 00:00:00-04:00,4.124219156715259
2013-04-29 00:00:00-04:00,4.138536969148759
2013-04-30 00:00:00-04:00,4.1393528503344
2013-05-01 00:00:00-04:00,4.1260805428114375
2013-05-02 00:00:00-04:00,4.148418449151698
2013-05-03 00:00:00-04:00,4.173688877789374
2013-05-06 00:00:00-04:00,4.170268551335012
2013-05-07 00:00:00-04:00,4.179843105103357
2013-05-08 00:00:00-04:00,4.196285311969472
2013-05-09 00:00:00-04:00,4.188390353453963
2013-05-10 00:00:00-04:00,4.189754034822526
2013-05-13 00:00:00-04:00,4.1837670870470065
2013-05-14 00:00:00-04:00,4.20699211485552
2013-05-15 00:00:00-04:00,4.204821741403591
2013-05-16 00:00:00-04:00,4.198924706025153
2013-05-17 00:00:00-04:00,4.219854670230963
2013-05-20 00:00:00-04:00,4.20858536150826
2013-05-21 00:00:00-04:00,4.220484239499133
2013-05-22 00:00:00-04:00,4.211700147412732
2013-05-23 00:00:00-04:00,4.20731108089936
2013-05-24 00:00:00-04:00,4.207120145144913
2013-05-28 00:00:00-04:00,4.21030324414621
2013-05-29 00:00:00-04:00,4.20884031773157
2013-05-30 00:00:00-04:00,4.203798783777831
2013-05-31 00:00:00-04:00,4.186374624109515
2013-06-03 00:00:00-04:00,4.196285311969472
2013-06-04 00:00:00-04:00,4.186048792535804
2013-06-05 00:00:00-04:00,4.162526388483672
2013-06-06 00:00:00-04:00,4.171023864763832
2013-06-07 00:00:00-04:00,4.194866233465698
2013-06-10 00:00:00-04:00,4.190662123703409
2013-06-11 00:00:00-04:00,4.175179708612571
2013-06-12 00:00:00-04:00,4.168906226012402
2013-06-13 00:00:00-04:00,4.197123241336751
2013-06-14 00:00:00-04:00,4.18780556390451
2013-06-17 00:00:00-04:00,4.202518271069391
2013-06-18 00:00:00-04:00,4.205460388254341
2013-06-19 00:00:00-04:00,4.19001314373894
2013-06-20 00:00:00-04:00,4.163125670159177
2013-06-21 00:00:00-04:00,4.155232737406552
2013-06-24 00:00:00-04:00,4.140210880592584
2013-06-25 00:00:00-04:00,4.148020419366744
2013-06-26 00:00:00-04:00,4.155904080736734
2013-06-27 00:00:00-04:00,4.156104750359443
2013-06-28 00:00:00-04:00,4.1383686997962155
2013-07-01 00:00:00-04:00,4.1521382957039785
2013-07-02 00:00:00-04:00,4.156440484531891
2013-07-03 00:00:00-04:00,4.159855596536711
2013-07-05 00:00:00-04:00,4.178597449812844
2013-07-08 00:00:00-04:00,4.183897427859347
2013-07-09 00:00:00-04:00,4.205205251608052
2013-07-10 00:00:00-04:00,4.20206945278258
2013-07-11 00:00:00-04:00,4.214742358557314
2013-07-12 00:00:00-04:00,4.212842019087329
2013-07-15 00:00:00-04:00,4.20813948556398
2013-07-16 00:00:00-04:00,4.194349652927432
2013-07-17 00:00:00-04:00,4.20731108089936
2013-07-18 00:00:00-04:00,4.227131191724304
2013-07-19 00:00:00-04:00,4.2218673386273196
2013-07-22 00:00:00-04:00,4.225442222940815
2013-07-23 00:00:00-04:00,4.221678938404914
2013-07-24 00:00:00-04:00,4.208712734330554
2013-07-25 00:00:00-04:00,4.21916219099646
2013-07-26 00:00:00-04:00,4.2089032528806625
2013-07-29 00:00:00-04:00,4.234416718520215
2013-07-30 00:00:00-04:00,4.233672419475145
2013-07-31 00:00:00-04:00,4.229877857858325
2013-08-01 00:00:00-04:00,4.244234315609512
2013-08-02 00:00:00-04:00,4.241773548643762
2013-08-05 00:00:00-04:00,4.238874438020704
2013-08-06 00:00:00-04:00,4.235967008477305
2013-08-07 00:00:00-04:00,4.233920728170692
2013-08-08 00:00:00-04:00,4.242297903455295
2013-08-09 00:00:00-04:00,4.241432131460642
2013-08-12 00:00:00-04:00,4.239265351472022
2013-08-13 00:00:00-04:00,4.2480278869366055
2013-08-14 00:00:00-04:00,4.245629134813806
2013-08-15 00:00:00-04:00,4.223208062960125
2013-08-16 00:00:00-04:00,4.222073497126329
2013-08-19 00:00:00-04:00,4.210786298890957
2013-08-20 00:00:00-04:00,4.224466948087654
2013-08-21 00:00:00-04:00,4.225347080667632
2013-08-22 00:00:00-04:00,4.2318621622321295
2013-08-23 00:00:00-04:00,4.24482761404661
2013-08-26 00:00:00-04:00,4.23261135293797
2013-08-27 00:00:00-04:00,4.216826308158639
2013-08-28 00:00:00-04:00,4.20406761086318
2013-08-29 00:00:00-04:00,4.206824185155633
2013-08-30 00:00:00-04:00,4.206952464174606
2013-09-03 00:00:00-04:00,4.213334122519829
2013-09-04 00:00:00-04:00,4.2242780320753335
2013-09-05 00:00:00-04:00,4.234481380363942
2013-09-06 00:00:00-04:00,4.226226662186723
2013-09-09 00:00:00-04:00,4.241122988556874
2013-09-10 00:00:00-04:00,4.253847951773925
2013-09-11 00:00:00-04:00,4.258175280992744
2013-09-12 00:00:00-04:00,4.248703611800928
2013-09-13 00:00:00-04:00,4.246060246859509
2013-09-16 00:00:00-04:00,4.262908302961022
2013-09-17 00:00:00-04:00,4.263876331208329
2013-09-18 00:00:00-04:00,4.278583707774446
2013-09-19 00:00:00-04:00,4.279655864731067
2013-09-20 00:00:00-04:00,4.269424568249997
2013-09-23 00:00:00-04:00,4.2520748609744
2013-09-24 00:00:00-04:00,4.252380420034209
2013-09-25 00:00:00-04:00,4.259512643800392
2013-09-26 00:00:00-04:00,4.271647285371644
2013-09-27 00:00:00-04:00,4.263331709144373
2013-09-30 00:00:00-04:00,4.274104344207908
2013-10-01 00:00:00-04:00,4.272606788538894
2013-10-02 00:00:00-04:00,4.271587432286455
2013-10-03 00:00:00-04:00,4.270686754074482
2013-10-04 00:00:00-04:00,4.296829822412667
2013-10-07 00:00:00-04:00,4.279179281042935
2013-10-08 00:00:00-04:00,4.248335120936852
2013-10-09 00:00:00-04:00,4.2463061542801555
2013-10-10 00:00:00-04:00,4.260059241480615
2013-10-11 00:00:00-04:00,4.272247002905954
2013-10-14 00:00:00-04:00,4.268521618513891
2013-10-15 00:00:00-04:00,4.264601818369029
2013-10-16 00:00:00-04:00,4.269063528896843
2013-10-17 00:00:00-04:00,4.317503982551022
2013-10-18 00:00:00-04:00,4.324927919064165
2013-10-21 00:00:00-04:00,4.329695203952981
2013-10-22 00:00:00-04:00,4.349374601938292
2013-10-23 00:00:00-04:00,4.3400595159647875
2013-10-24 00:00:00-04:00,4.345703932278303
2013-10-25 00:00:00-04:00,4.3593180959597735
2013-10-28 00:00:00-04:00,4.353640433012815
2013-10-29 00:00:00-04:00,4.378859813756932
2013-10-30 00:00:00-04:00,4.357888046344801
2013-10-31 00:00:00-04:00,4.362939901348266
2013-11-01 00:00:00-04:00,4.363870305065411
2013-11-04 00:00:00-05:00,4.367748337665945
2013-11-05 00:00:00-05:00,4.3669846796208445
2013-11-06 00:00:00-05:00,4.3674771418042235
2013-11-07 00:00:00-05:00,4.350039181643685
2013-11-08 00:00:00-05:00,4.360725645327205
2013-11-11 00:00:00-05:00,4.363969842749367
2013-11-12 00:00:00-05:00,4.365889417852356
2013-11-13 00:00:00-05:00,4.377384069204743
2013-11-14 00:00:00-05:00,4.382570367287155
2013-11-15 00:00:00-05:00,4.378899611652509
2013-11-18 00:00:00-05:00,4.37754645602113
2013-11-19 00:00:00-05:00,4.378142223275815
2013-11-20 00:00:00-05:00,4.364189470371715
2013-11-21 00:00:00-05:00,4.370317514901405
2013-11-22 00:00:00-05:00,4.372823611720573
2013-11-25 00:00:00-05:00,4.3750517978002526
2013-11-26 00:00:00-05:00,4.380142689532281
2013-11-27 00:00:00-05:00,4.376950429468997
2013-11-29 00:00:00-05:00,4.374346076248522
2013-12-02 00:00:00-05:00,4.372170444210535
2013-12-03 00:00:00-05:00,4.361221101376282
2013-12-04 00:00:00-05:00,4.36829718019021
2013-12-05 00:00:00-05:00,4.361881457564311
2013-12-06 00:00:00-05:00,4.394674996922305
2013-12-09 00:00:00-05:00,4.38864094988088
2013-12-10 00:00:00-05:00,4.392062547053004
2013-12-11 00:00:00-05:00,4.365012305104499
2013-12-12 00:00:00-05:00,4.373585133721799
2013-12-13 00:00:00-05:00,4.368078646396377
2013-12-16 00:00:00-05:00,4.365286400634617
2013-12-17 00:00:00-05:00,4.371898325680382
2013-12-18 00:00:00-05:00,4.380682481429873
2013-12-19 00:00:00-05:00,4.381060763860311
2013-12-20 00:00:00-05:00,4.3881586134757224
2013-12-23 00:00:00-05:00,4.382139257268487
2013-12-24 00:00:00-05:00,4.393289945360788
2013-12-26 00:00:00-05:00,4.395951957521581
2013-12-27 00:00:00-05:00,4.394355525373747
2013-12-30 00:00:00-05:00,4.3980230190209655
2013-12-31 00:00:00-05:00,4.404317478994856
2014-01-02 00:00:00-05:00,4.400514178319997
2014-01-03 00:00:00-05:00,4.402998026503992
2014-01-06 00:00:00-05:00,4.392969842291281
2014-01-07 00:00:00-05:00,4.397014706224505
2014-01-08 00:00:00-05:00,4.403314936068835
2014-01-09 00:00:00-05:00,4.406792561197339
2014-01-10 00:00:00-05:00,4.409156100270976
2014-01-13 00:00:00-05:00,4.394248792352262
2014-01-14 00:00:00-05:00,4.410781546050933
2014-01-15 00:00:00-05:00,4.4097858369738
2014-01-16 00:00:00-05:00,4.393769342398811
2014-01-17 00:00:00-05:00,4.403367869038483
2014-01-21 00:00:00-05:00,4.406108523164956
2014-01-22 00:00:00-05:00,4.391048014209328
2014-01-23 00:00:00-05:00,4.3896045467167095
2014-01-24 00:00:00-05:00,4.360890857088438
2014-01-27 00:00:00-05:00,4.36960844315526
2014-01-28 00:00:00-05:00,4.365450666760073
2014-01-29 00:00:00-05:00,4.3696626113469295
2014-01-30 00:00:00-05:00,4.377654699250861
2014-01-31 00:00:00-05:00,4.365067304818602
2014-02-03 00:00:00-05:00,4.3344993770021505
2014-02-04 00:00:00-05:00,4.3365892886901065
2014-02-05 00:00:00-05:00,4.336476008561052
2014-02-06 00:00:00-05:00,4.346023114762522
2014-02-07 00:00:00-05:00,4.3660534880575215
2014-02-10 00:00:00-05:00,4.373639375448915
2014-02-11 00:00:00-05:00,4.380304820102202
2014-02-12 00:00:00-05:00,4.383539923888409
2014-02-13 00:00:00-05:00,4.391421924145048
2014-02-14 00:00:00-05:00,4.400302011716172
2014-02-18 00:00:00-05:00,4.387998035759602
2014-02-19 00:00:00-05:00,4.393787910285953
2014-02-20 00:00:00-05:00,4.402782649963138
2014-02-21 00:00:00-05:00,4.40869860358862
2014-02-24 00:00:00-05:00,4.401563114022568
2014-02-25 00:00:00-05:00,4.413427404860419
2014-02-26 00:00:00-05:00,4.425722395140344
2014-02-27 00:00:00-05:00,4.428617934923118
2014-02-28 00:00:00-05:00,4.449716459790286
2014-03-03 00:00:00-05:00,4.445867120665211
2014-03-04 00:00:00-05:00,4.461625888182412
2014-03-05 00:00:00-05:00,4.458373709645566
2014-03-06 00:00:00-05:00,4.461375824707353
2014-03-07 00:00:00-05:00,4.461026300493296
2014-03-10 00:00:00-04:00,4.462175209264352
2014-03-11 00:00:00-04:00,4.44814795556233
2014-03-12 00:00:00-04:00,4.446628036734644
2014-03-13 00:00:00-04:00,4.434896820604609
2014-03-14 00:00:00-04:00,4.4332022244187534
2014-03-17 00:00:00-04:00,4.440269307413084
2014-03-18 00:00:00-04:00,4.450423956338334
2014-03-19 00:00:00-04:00,4.436178488448638
2014-03-20 00:00:00-04:00,4.434024531921038
2014-03-21 00:00:00-04:00,4.435973665680375
2014-03-24 00:00:00-04:00,4.426136765926525
2014-03-25 00:00:00-04:00,4.424375417161547
2014-03-26 00:00:00-04:00,4.411538511334482
2014-03-27 00:00:00-04:00,4.406906242986875
2014-03-28 00:00:00-04:00,4.413637082379659
2014-03-31 00:00:00-04:00,4.42742961215027
2014-04-01 00:00:00-04:00,4.443733685445772
2014-04-02 00:00:00-04:00,4.446881457434965
2014-04-03 00:00:00-04:00,4.447439292990346
2014-04-04 00:00:00-04:00,4.449413030006325
2014-04-07 00:00:00-04:00,4.42541168696837
2014-04-08 00:00:00-04:00,4.422455180221209
2014-04-09 00:00:00-04:00,4.438890711903398
2014-04-10 00:00:00-04:00,4.409172528381218
2014-04-11 00:00:00-04:00,4.397842990779135
2014-04-14 00:00:00-04:00,4.401775200264661
2014-04-15 00:00:00-04:00,4.401616326834973
2014-04-16 00:00:00-04:00,4.417925305134053
2014-04-17 00:00:00-04:00,4.457972663314038
2014-04-21 00:00:00-04:00,4.44322500185088
2014-04-22 00:00:00-04:00,4.442308862459673
2014-04-23 00:00:00-04:00,4.442003086483856
2014-04-24 00:00:00-04:00,4.432842529739376
2014-04-25 00:00:00-04:00,4.424945672026085
2014-04-28 00:00:00-04:00,4.41709010680737
2014-04-29 00:00:00-04:00,4.425048995917387
2014-04-30 00:00:00-04:00,4.428256314038247
2014-05-01 00:00:00-04:00,4.423182039183021
2014-05-02 00:00:00-04:00,4.436281109930746
2014-05-05 00:00:00-04:00,4.43991214621715
2014-05-06 00:00:00-04:00,4.437765594070361
2014-05-07 00:00:00-04:00,4.454356167603147
2014-05-08 00:00:00-04:00,4.445278059624159
2014-05-09 00:00:00-04:00,4.447008545859007
2014-05-12 00:00:00-04:00,4.4610988233753766
2014-05-13 00:00:00-04:00,4.4526380051530206
2014-05-14 00:00:00-04:00,4.446703578018148
2014-05-15 00:00:00-04:00,4.436836131289746
2014-05-16 00:00:00-04:00,4.4405798412783435
2014-05-19 00:00:00-04:00,4.444054797719763
2014-05-20 00:00:00-04:00,4.44226746918726
2014-05-21 00:00:00-04:00,4.449802016765804
2014-05-22 00:00:00-04:00,4.445634652150092
2014-05-23 00:00:00-04:00,4.458336863927112
2014-05-27 00:00:00-04:00,4.4546088792989895
2014-05-28 00:00:00-04:00,4.465302319118854
2014-05-29 00:00:00-04:00,4.4690406422117075
2014-05-30 00:00:00-04:00,4.472071003239833
2014-06-02 00:00:00-04:00,4.475635747456562
2014-06-03 00:00:00-04:00,4.472616447279646
2014-06-04 00:00:00-04:00,4.483169177900838
2014-06-05 00:00:00-04:00,4.479680451622978
2014-06-06 00:00:00-04:00,4.488404374940266
2014-06-09 00:00:00-04:00,4.489282173708523
2014-06-10 00:00:00-04:00,4.492640802736105
2014-06-11 00:00:00-04:00,4.491668267903719
2014-06-12 00:00:00-04:00,4.481794913242279
2014-06-13 00:00:00-04:00,4.485178310815907
2014-06-16 00:00:00-04:00,4.479040358904488
2014-06-17 00:00:00-04:00,4.476524994896247
2014-06-18 00:00:00-04:00,4.4818440235749515
2014-06-19 00:00:00-04:00,4.480025073673941
2014-06-20 00:00:00-04:00,4.486646032952841
2014-06-23 00:00:00-04:00,4.485667819583175
2014-06-24 00:00:00-04:00,4.479089518151551
2014-06-25 00:00:00-04:00,4.486157088848843
2014-06-26 00:00:00-04:00,4.476870619178335
2014-06-27 00:00:00-04:00,4.484100840110695
2014-06-30 00:00:00-04:00,4.513557256854458
2014-07-01 00:00:00-04:00,4.507400012664476
2014-07-02 00:00:00-04:00,4.504762931696671
2014-07-03 00:00:00-04:00,4.513604999095862
2014-07-07 00:00:00-04:00,4.505099018711707
2014-07-08 00:00:00-04:00,4.4974878954714335
2014-07-09 00:00:00-04:00,4.502408253705395
2014-07-10 00:00:00-04:00,4.500336722575935
2014-07-11 00:00:00-04:00,4.5034182131431475
2014-07-14 00:00:00-04:00,4.503225950724967
2014-07-15 00:00:00-04:00,4.491473732867483
2014-07-16 00:00:00-04:00,4.492591792871963
2014-07-17 00:00:00-04:00,4.5018305186146454
2014-07-18 00:00:00-04:00,4.510698186306784
2014-07-21 00:00:00-04:00,4.506873304027065
2014-07-22 00:00:00-04:00,4.513367017758462
2014-07-23 00:00:00-04:00,4.514318603485934
2014-07-24 00:00:00-04:00,4.51293857551085
2014-07-25 00:00:00-04:00,4.507448049766291
2014-07-28 00:00:00-04:00,4.506489732049619
2014-07-29 00:00:00-04:00,4.488697145870881
2014-07-30 00:00:00-04:00,4.485961650536554
2014-07-31 00:00:00-04:00,4.4558192178730565
2014-08-01 00:00:00-04:00,4.455970506885848
2014-08-04 00:00:00-04:00,4.4671485725389095
2014-08-05 00:00:00-04:00,4.455063049846149
2014-08-06 00:00:00-04:00,4.4584876842081576
2014-08-07 00:00:00-04:00,4.453936732815313
2014-08-08 00:00:00-04:00,4.468527005738207
2014-08-11 00:00:00-04:00,4.463319018939927
2014-08-12 00:00:00-04:00,4.4650748521677155
2014-08-13 00:00:00-04:00,4.477427236054781
2014-08-14 00:00:00-04:00,4.475247126218828
2014-08-15 00:00:00-04:00,4.47871366547791
2014-08-18 00:00:00-04:00,4.486102088084835
2014-08-19 00:00:00-04:00,4.490313771797365
2014-08-20 00:00:00-04:00,4.4876221748200535
2014-08-21 00:00:00-04:00,4.492510332139236
2014-08-22 00:00:00-04:00,4.489922424102889
2014-08-25 00:00:00-04:00,4.498102196037124
2014-08-26 00:00:00-04:00,4.4992170298827245
2014-08-27 00:00:00-04:00,4.493290170090949
2014-08-28 00:00:00-04:00,4.4942641983433065
2014-08-29 00:00:00-04:00,4.496306736387889
2014-09-02 00:00:00-04:00,4.493046706745594
2014-09-03 00:00:00-04:00,4.484923657761248
2014-09-04 00:00:00-04:00,4.485365731886617
2014-09-05 00:00:00-04:00,4.487034199944747
2014-09-08 00:00:00-04:00,4.486838074217224
2014-09-09 00:00:00-04:00,4.474701116264371
2014-09-10 00:00:00-04:00,4.47965251343971
2014-09-11 00:00:00-04:00,4.474502556482837
2014-09-12 00:00:00-04:00,4.4658262089266
2014-09-15 00:00:00-04:00,4.465976517783521
2014-09-16 00:00:00-04:00,4.47002424430765
2014-09-17 00:00:00-04:00,4.476536014381256
2014-09-18 00:00:00-04:00,4.483104185901555
2014-09-19 00:00:00-04:00,4.481379579881652
2014-09-22 00:00:00-04:00,4.4658262089266
2014-09-23 00:00:00-04:00,4.458790316394968
2014-09-24 00:00:00-04:00,4.470123712754118
2014-09-25 00:00:00-04:00,4.4543929828631565
2014-09-26 00:00:00-04:00,4.4596472772276625
2014-09-29 00:00:00-04:00,4.464724072548522
2014-09-30 00:00:00-04:00,4.450993171687293
2014-10-01 00:00:00-04:00,4.422273268393351
2014-10-02 00:00:00-04:00,4.422273268393351
2014-10-03 00:00:00-04:00,4.425823721918744
2014-10-06 00:00:00-04:00,4.42279610706292
2014-10-07 00:00:00-04:00,4.397112689934955
2014-10-08 00:00:00-04:00,4.413657594963253
2014-10-09 00:00:00-04:00,4.3950181832530175
2014-10-10 00:00:00-04:00,4.381597484527178
2014-10-13 00:00:00-04:00,4.342940945058321
2014-10-14 00:00:00-04:00,4.348531397241461
2014-10-15 00:00:00-04:00,4.364841369576463
2014-10-16 00:00:00-04:00,4.3721823868320175
2014-10-17 00:00:00-04:00,4.401554696973892
2014-10-20 00:00:00-04:00,4.422325573723299
2014-10-21 00:00:00-04:00,4.447428841460588
2014-10-22 00:00:00-04:00,4.435472318916199
2014-10-23 00:00:00-04:00,4.441596946880071
2014-10-24 00:00:00-04:00,4.446459053915145
2014-10-27 00:00:00-04:00,4.429725745399694
2014-10-28 00:00:00-04:00,4.444107858274057
2014-10-29 00:00:00-04:00,4.426866061191927
2014-10-30 00:00:00-04:00,4.428426852969452
2014-10-31 00:00:00-04:00,4.485709776155721
2014-11-03 00:00:00-05:00,4.469276036337338
2014-11-04 00:00:00-05:00,4.459748136121083
2014-11-05 00:00:00-05:00,4.493338548490933
2014-11-06 00:00:00-05:00,4.500692848871028
2014-11-07 00:00:00-05:00,4.50461538882303
2014-11-10 00:00:00-05:00,4.501565685819047
2014-11-11 00:00:00-05:00,4.496657327356695
2014-11-12 00:00:00-05:00,4.490009403493622
2014-11-13 00:00:00-05:00,4.496511390300211
2014-11-14 00:00:00-05:00,4.490009403493622
2014-11-17 00:00:00-05:00,4.496998274412281
2014-11-18 00:00:00-05:00,4.512319008860439
2014-11-19 00:00:00-05:00,4.522625469878127
2014-11-20 00:00:00-05:00,4.532074567911455
2014-11-21 00:00:00-05:00,4.544644436236778
2014-11-24 00:00:00-05:00,4.545665523178637
2014-11-25 00:00:00-05:00,4.544876710889874
2014-11-26 00:00:00-05:00,4.552046894008539
2014-11-28 00:00:00-05:00,4.560629186730926
2014-12-01 00:00:00-05:00,4.565416213001274
2014-12-02 00:00:00-05:00,4.562045040380627
2014-12-03 00:00:00-05:00,4.580716825475342
2014-12-04 00:00:00-05:00,4.582730422087267
2014-12-05 00:00:00-05:00,4.57887878472445
2014-12-08 00:00:00-05:00,4.578833902677869
2014-12-09 00:00:00-05:00,4.591542207775418
2014-12-10 00:00:00-05:00,4.569863628694304
2014-12-11 00:00:00-05:00,4.57775652086904
2014-12-12 00:00:00-05:00,4.565188978654278
2014-12-15 00:00:00-05:00,4.557379308742083
2014-12-16 00:00:00-05:00,4.550709214689187
2014-12-17 00:00:00-05:00,4.576227369830444
2014-12-18 00:00:00-05:00,4.5973739131848985
2014-12-19 00:00:00-05:00,4.601286846861752
2014-12-22 00:00:00-05:00,4.60871849449508
2014-12-23 00:00:00-05:00,4.615100574462646
2014-12-24 00:00:00-05:00,4.615316822288785
2014-12-26 00:00:00-05:00,4.617348460184026
2014-12-29 00:00:00-05:00,4.621098035770916
2014-12-30 00:00:00-05:00,4.617650725377951
2014-12-31 00:00:00-05:00,4.6154466391584466
2015-01-02 00:00:00-05:00,4.607846654758875
2015-01-05 00:00:00-05:00,4.581701675487236
2015-01-06 00:00:00-05:00,4.579237612000583
2015-01-07 00:00:00-05:00,4.583668704346325
2015-01-08 00:00:00-05:00,4.609937247854795
2015-01-09 00:00:00-05:00,4.597197817111348
2015-01-12 00:00:00-05:00,4.594020304785235
2015-01-13 00:00:00-05:00,4.597285945922197
2015-01-14 00:00:00-05:00,4.597197817111348
2015-01-15 00:00:00-05:00,4.593799401730647
2015-01-16 00:00:00-05:00,4.612109856826685
2015-01-20 00:00:00-05:00,4.602427093039921
2015-01-21 00:00:00-05:00,4.601857209018124
2015-01-22 00:00:00-05:00,4.616311654550177
2015-01-23 00:00:00-05:00,4.60089163685696
2015-01-26 00:00:00-05:00,4.600935693002886
2015-01-27 00:00:00-05:00,4.592737645683289
2015-01-28 00:00:00-05:00,4.573885247307886
2015-01-29 00:00:00-05:00,4.591630759064402
2015-01-30 00:00:00-05:00,4.579013497094946
2015-02-02 00:00:00-05:00,4.582819679065892
2015-02-03 00:00:00-05:00,4.5968891512396235
2015-02-04 00:00:00-05:00,4.599310307467214
2015-02-05 00:00:00-05:00,4.612066669089814
2015-02-06 00:00:00-05:00,4.614191338697221
2015-02-09 00:00:00-05:00,4.596536834216832
2015-02-10 00:00:00-05:00,4.602777570716582
2015-02-11 00:00:00-05:00,4.602689848087372
2015-02-12 00:00:00-05:00,4.623546820616161
2015-02-13 00:00:00-05:00,4.639469145055808
2015-02-17 00:00:00-05:00,4.635575862682143
2015-02-18 00:00:00-05:00,4.640073036733609
2015-02-19 00:00:00-05:00,4.636935668829779
2015-02-20 00:00:00-05:00,4.641764481957382
2015-02-23 00:00:00-05:00,4.64113070002101
2015-02-24 00:00:00-05:00,4.6423138416759535
2015-02-25 00:00:00-05:00,4.637657272915905
2015-02-26 00:00:00-05:00,4.6383783566650285
2015-02-27 00:00:00-05:00,4.636426013647711
2015-03-02 00:00:00-05:00,4.646234045787832
2015-03-03 00:00:00-05:00,4.632850764776026
2015-03-04 00:00:00-05:00,4.636255996890038
2015-03-05 00:00:00-05:00,4.63672315925912
2015-03-06 00:00:00-05:00,4.62183250571538
2015-03-09 00:00:00-04:00,4.6232111162096885
2015-03-10 00:00:00-04:00,4.603121962490398
2015-03-11 00:00:00-04:00,4.592124800922037
2015-03-12 00:00:00-04:00,4.611998928777051
2015-03-13 00:00:00-04:00,4.604175734165214
2015-03-16 00:00:00-04:00,4.6136517244784105
2015-03-17 00:00:00-04:00,4.601319550597123
2015-03-18 00:00:00-04:00,4.611737623376242
2015-03-19 00:00:00-04:00,4.596511438589512
2015-03-20 00:00:00-04:00,4.60920857527169
2015-03-23 00:00:00-04:00,4.597660522048948
2015-03-24 00:00:00-04:00,4.593500568713024
2015-03-25 00:00:00-04:00,4.579972093644089
2015-03-26 00:00:00-04:00,4.5747440911004915
2015-03-27 00:00:00-04:00,4.58221703979678
2015-03-30 00:00:00-04:00,4.589055861144219
2015-03-31 00:00:00-04:00,4.5937219236453695
2015-04-01 00:00:00-04:00,4.588922107205596
2015-04-02 00:00:00-04:00,4.584993947648231
2015-04-06 00:00:00-04:00,4.5878523626846714
2015-04-07 00:00:00-04:00,4.590880725250644
2015-04-08 00:00:00-04:00,4.596334728732629
2015-04-09 00:00:00-04:00,4.606060521333447
2015-04-10 00:00:00-04:00,4.6111278220696965
2015-04-13 00:00:00-04:00,4.611519841975073
2015-04-14 00:00:00-04:00,4.604394891628589
2015-04-15 00:00:00-04:00,4.601363587895267
2015-04-16 00:00:00-04:00,4.599072761740944
2015-04-17 00:00:00-04:00,4.598455262679974
2015-04-20 00:00:00-04:00,4.603165844041409
2015-04-21 00:00:00-04:00,4.600395162329325
2015-04-22 00:00:00-04:00,4.597528144793873
2015-04-23 00:00:00-04:00,4.5952286594174545
2015-04-24 00:00:00-04:00,4.5837855477794145
2015-04-27 00:00:00-04:00,4.572708500443594
2015-04-28 00:00:00-04:00,4.57230056923051
2015-04-29 00:00:00-04:00,4.578667594393551
2015-04-30 00:00:00-04:00,4.575918210754798
2015-05-01 00:00:00-04:00,4.5893230828252625
2015-05-04 00:00:00-04:00,4.591458444186844
2015-05-05 00:00:00-04:00,4.576008156370754
2015-05-06 00:00:00-04:00,4.578127273704197
2015-05-07 00:00:00-04:00,4.594172817466667
2015-05-08 00:00:00-04:00,4.612412648974842
2015-05-11 00:00:00-04:00,4.604875113772043
2015-05-12 00:00:00-04:00,4.592303647292323
2015-05-13 00:00:00-04:00,4.5963490452406015
2015-05-14 00:00:00-04:00,4.611320666539486
2015-05-15 00:00:00-04:00,4.623916032733688
2015-05-18 00:00:00-04:00,4.6205870790506305
2015-05-19 00:00:00-04:00,4.616508254369767
2015-05-20 00:00:00-04:00,4.6118889736012925
2015-05-21 00:00:00-04:00,4.6131984050408255
2015-05-22 00:00:00-04:00,4.6130238627521765
2015-05-26 00:00:00-04:00,4.602188220541457
2015-05-27 00:00:00-04:00,4.612805604184406
2015-05-28 00:00:00-04:00,4.615768956171303
2015-05-29 00:00:00-04:00,4.611714126795486
2015-06-01 00:00:00-04:00,4.612325540287839
2015-06-02 00:00:00-04:00,4.608914008364607
2015-06-03 00:00:00-04:00,4.616508254369767
2015-06-04 00:00:00-04:00,4.611189402874767
2015-06-05 00:00:00-04:00,4.610577370007674
2015-06-08 00:00:00-04:00,4.608256543770505
2015-06-09 00:00:00-04:00,4.6132856647621
2015-06-10 00:00:00-04:00,4.624692356311875
2015-06-11 00:00:00-04:00,4.63375098470677
2015-06-12 00:00:00-04:00,4.630583423607671
2015-06-15 00:00:00-04:00,4.620283896658854
2015-06-16 00:00:00-04:00,4.625209969572834
2015-06-17 00:00:00-04:00,4.630968932608883
2015-06-18 00:00:00-04:00,4.6406927629764585
2015-06-19 00:00:00-04:00,4.636354505119067
2015-06-22 00:00:00-04:00,4.6437436583823555
2015-06-23 00:00:00-04:00,4.644758949688593
2015-06-24 00:00:00-04:00,4.642049971962979
2015-06-25 00:00:00-04:00,4.640098381301858
2015-06-26 00:00:00-04:00,4.642389041719683
2015-06-29 00:00:00-04:00,4.616377820815313
2015-06-30 00:00:00-04:00,4.6141139123080155
2015-07-01 00:00:00-04:00,4.62951089132052
2015-07-02 00:00:00-04:00,4.624433673690398
2015-07-06 00:00:00-04:00,4.617420888564844
2015-07-07 00:00:00-04:00,4.6170733201888
2015-07-08 00:00:00-04:00,4.599891998605938
2015-07-09 00:00:00-04:00,4.595816425503481
2015-07-10 00:00:00-04:00,4.615681988378095
2015-07-13 00:00:00-04:00,4.6297684873715825
2015-07-14 00:00:00-04:00,4.638993601981865
2015-07-15 00:00:00-04:00,4.6336227810471105
2015-07-16 00:00:00-04:00,4.5885097999045525
2015-07-17 00:00:00-04:00,4.588331127154003
2015-07-20 00:00:00-04:00,4.579797444854378
2015-07-21 00:00:00-04:00,4.555693445847277
2015-07-22 00:00:00-04:00,4.554583846367461
2015-07-23 00:00:00-04:00,4.531562260158303
2015-07-24 00:00:00-04:00,4.508773081466539
2015-07-27 00:00:00-04:00,4.500408822128928
2015-07-28 00:00:00-04:00,4.543700681067529
2015-07-29 00:00:00-04:00,4.559014716295945
2015-07-30 00:00:00-04:00,4.558554078962015
2015-07-31 00:00:00-04:00,4.557263340531649
2015-08-03 00:00:00-04:00,4.5525464042013315
2015-08-04 00:00:00-04:00,4.5401401703889865
2015-08-05 00:00:00-04:00,4.540609285042803
2015-08-06 00:00:00-04:00,4.53096160640357
2015-08-07 00:00:00-04:00,4.518624176994141
2015-08-10 00:00:00-04:00,4.544179806105332
2015-08-11 00:00:00-04:00,4.52332844560977
2015-08-12 00:00:00-04:00,4.519682056781122
2015-08-13 00:00:00-04:00,4.514767416863244
2015-08-14 00:00:00-04:00,4.526101893808573
2015-08-17 00:00:00-04:00,4.52189073937445
2015-08-18 00:00:00-04:00,4.524859580749043
2015-08-19 00:00:00-04:00,4.504865414362535
2015-08-20 00:00:00-04:00,4.478872264488003
2015-08-21 00:00:00-04:00,4.451876580987302
2015-08-24 00:00:00-04:00,4.39961342422297
2015-08-25 00:00:00-04:00,4.386411633117606
2015-08-26 00:00:00-04:00,4.408677060435874
2015-08-27 00:00:00-04:00,4.430877559675211
2015-08-28 00:00:00-04:00,4.440496370040523
2015-08-31 00:00:00-04:00,4.431927439497512
2015-09-01 00:00:00-04:00,4.389701082483476
2015-09-02 00:00:00-04:00,4.413285253798521
2015-09-03 00:00:00-04:00,4.418084828367837
2015-09-04 00:00:00-04:00,4.410930261035604
2015-09-08 00:00:00-04:00,4.443508971038813
2015-09-09 00:00:00-04:00,4.440392111154911
2015-09-10 00:00:00-04:00,4.4459956799262645
2015-09-11 00:00:00-04:00,4.446823002061872
2015-09-14 00:00:00-04:00,4.41999831847383
2015-09-15 00:00:00-04:00,4.421271702905425
2015-09-16 00:00:00-04:00,4.429616356310369
2015-09-17 00:00:00-04:00,4.423179385035267
2015-09-18 00:00:00-04:00,4.409643445587691
2015-09-21 00:00:00-04:00,4.412429425009312
2015-09-22 00:00:00-04:00,4.392652467510138
2015-09-23 00:00:00-04:00,4.374145681985355
2015-09-24 00:00:00-04:00,4.353588824064597
2015-09-25 00:00:00-04:00,4.356195862895808
2015-09-28 00:00:00-04:00,4.311872910792732
2015-09-29 00:00:00-04:00,4.32876864941462
2015-09-30 00:00:00-04:00,4.348810441264093
2015-10-01 00:00:00-04:00,4.376255830846472
2015-10-02 00:00:00-04:00,4.403939590565765
2015-10-05 00:00:00-04:00,4.424554479312358
2015-10-06 00:00:00-04:00,4.4118942871050715
2015-10-07 00:00:00-04:00,4.4215896583118335
2015-10-08 00:00:00-04:00,4.436952135716461
2015-10-09 00:00:00-04:00,4.439038638192413
2015-10-12 00:00:00-04:00,4.453212711915371
2015-10-13 00:00:00-04:00,4.451567845683743
2015-10-14 00:00:00-04:00,4.453007173808513
2015-10-15 00:00:00-04:00,4.472745532821992
2015-10-16 00:00:00-04:00,4.487545714725042
2015-10-19 00:00:00-04:00,4.49190377901519
2015-10-20 00:00:00-04:00,4.493878657665482
2015-10-21 00:00:00-04:00,4.486552489660417
2015-10-22 00:00:00-04:00,4.515733023143728
2015-10-23 00:00:00-04:00,4.519297464904868
2015-10-26 00:00:00-04:00,4.518720424389786
2015-10-27 00:00:00-04:00,4.5090520550622495
2015-10-28 00:00:00-04:00,4.522561915137152
2015-10-29 00:00:00-04:00,4.522082431415472
2015-10-30 00:00:00-04:00,4.52189073937445
2015-11-02 00:00:00-05:00,4.5193935643961805
2015-11-03 00:00:00-05:00,4.52121878093046
2015-11-04 00:00:00-05:00,4.518046914199765
2015-11-05 00:00:00-05:00,4.511768500317003
2015-11-06 00:00:00-05:00,4.5132258411380795
2015-11-09 00:00:00-05:00,4.500819038269795
2015-11-10 00:00:00-05:00,4.4948049154854495
2015-11-11 00:00:00-05:00,4.4996388420735
2015-11-12 00:00:00-05:00,4.475735701365822
2015-11-13 00:00:00-05:00,4.491932914959707
2015-11-16 00:00:00-05:00,4.50297974003632
2015-11-17 00:00:00-05:00,4.50062263324338
2015-11-18 00:00:00-05:00,4.525096992060873
2015-11-19 00:00:00-05:00,4.516811966244491
2015-11-20 00:00:00-05:00,4.528831851320665
2015-11-23 00:00:00-05:00,4.5369233816438435
2015-11-24 00:00:00-05:00,4.537113193873238
2015-11-25 00:00:00-05:00,4.546266232820865
2015-11-27 00:00:00-05:00,4.543915249102136
2015-11-30 00:00:00-05:00,4.539480123174581
2015-12-01 00:00:00-05:00,4.549080169140176
2015-12-02 00:00:00-05:00,4.535690113492855
2015-12-03 00:00:00-05:00,4.5257684153977555
2015-12-04 00:00:00-05:00,4.541558643926795
2015-12-07 00:00:00-05:00,4.532361969278221
2015-12-08 00:00:00-05:00,4.51079561877681
2015-12-09 00:00:00-05:00,4.49904813640478
2015-12-10 00:00:00-05:00,4.492428864770117
2015-12-11 00:00:00-05:00,4.470885946568961
2015-12-14 00:00:00-05:00,4.460705480064577
2015-12-15 00:00:00-05:00,4.469060748590186
2015-12-16 00:00:00-05:00,4.485864862631357
2015-12-17 00:00:00-05:00,4.465910398700925
2015-12-18 00:00:00-05:00,4.44586157354714
2015-12-21 00:00:00-05:00,4.455576204064769
2015-12-22 00:00:00-05:00,4.4711897353813645
2015-12-23 00:00:00-05:00,4.486064187360407
2015-12-24 00:00:00-05:00,4.487559616995343
2015-12-28 00:00:00-05:00,4.482666543586456
2015-12-29 00:00:00-05:00,4.48945049753724
2015-12-30 00:00:00-05:00,4.4813642961910976
2015-12-31 00:00:00-05:00,4.471796861924763
2016-01-04 00:00:00-05:00,4.463056274884539
2016-01-05 00:00:00-05:00,4.466622483389754
2016-01-06 00:00:00-05:00,4.447729033792253
2016-01-07 00:00:00-05:00,4.435002287097658
2016-01-08 00:00:00-05:00,4.42699088657674
2016-01-11 00:00:00-05:00,4.426567383538269
2016-01-12 00:00:00-05:00,4.433636060269557
2016-01-13 00:00:00-05:00,4.411633878693788
2016-01-14 00:00:00-05:00,4.417206951358258
2016-01-15 00:00:00-05:00,4.399198037903039
2016-01-19 00:00:00-05:00,4.395928256990208
2016-01-20 00:00:00-05:00,4.416672338034648
2016-01-21 00:00:00-05:00,4.399415687362854
2016-01-22 00:00:00-05:00,4.412815494009465
2016-01-25 00:00:00-05:00,4.390564568344573
2016-01-26 00:00:00-05:00,4.406570276892565
2016-01-27 00:00:00-05:00,4.408943624291496
2016-01-28 00:00:00-05:00,4.401263423448035
2016-01-29 00:00:00-05:00,4.433636060269557
2016-02-01 00:00:00-05:00,4.438565233071787
2016-02-02 00:00:00-05:00,4.411526659221444
2016-02-03 00:00:00-05:00,4.4335310836389885
2016-02-04 00:00:00-05:00,4.439715108541586
2016-02-05 00:00:00-05:00,4.409697621638161
2016-02-08 00:00:00-05:00,4.374409982519858
2016-02-09 00:00:00-05:00,4.3892466205584215
2016-02-10 00:00:00-05:00,4.393085766521862
2016-02-11 00:00:00-05:00,4.370162345876382
2016-02-12 00:00:00-05:00,4.397891614739831
2016-02-16 00:00:00-05:00,4.417741002958567
2016-02-17 00:00:00-05:00,4.436226729083776
2016-02-18 00:00:00-05:00,4.432958092022749
2016-02-19 00:00:00-05:00,4.442836229759694
2016-02-22 00:00:00-05:00,4.454169764001904
2016-02-23 00:00:00-05:00,4.434857471336566
2016-02-24 00:00:00-05:00,4.443359013783525
2016-02-25 00:00:00-05:00,4.457163806862643
2016-02-26 00:00:00-05:00,4.468948497375346
2016-02-29 00:00:00-05:00,4.452203535451202
2016-03-01 00:00:00-05:00,4.483311128494426
2016-03-02 00:00:00-05:00,4.480797252993428
2016-03-03 00:00:00-05:00,4.490515548753051
2016-03-04 00:00:00-05:00,4.512114969166852
2016-03-07 00:00:00-05:00,4.520664600207136
2016-03-08 00:00:00-05:00,4.5025070044577316
2016-03-09 00:00:00-05:00,4.510064056409025
2016-03-10 00:00:00-05:00,4.516204635886179
2016-03-11 00:00:00-05:00,4.536405380140842
2016-03-14 00:00:00-04:00,4.533830758996316
2016-03-15 00:00:00-04:00,4.534021814455413
2016-03-16 00:00:00-04:00,4.5515271707908935
2016-03-17 00:00:00-04:00,4.577360606747742
2016-03-18 00:00:00-04:00,4.572779822046721
2016-03-21 00:00:00-04:00,4.572687851692949
2016-03-22 00:00:00-04:00,4.581374515613991
2016-03-23 00:00:00-04:00,4.5749809596987445
2016-03-24 00:00:00-04:00,4.573238838055577
2016-03-28 00:00:00-04:00,4.577360606747742
2016-03-29 00:00:00-04:00,4.587998523073643
2016-03-30 00:00:00-04:00,4.599955195516795
2016-03-31 00:00:00-04:00,4.59628469631546
2016-04-01 00:00:00-04:00,4.610710383224247
2016-04-04 00:00:00-04:00,4.60254367759901
2016-04-05 00:00:00-04:00,4.5957463431027215
2016-04-06 00:00:00-04:00,4.601562688863164
2016-04-07 00:00:00-04:00,4.5883603003959665
2016-04-08 00:00:00-04:00,4.599329492865929
2016-04-11 00:00:00-04:00,4.5979872389767715
2016-04-12 00:00:00-04:00,4.609206447648491
2016-04-13 00:00:00-04:00,4.620563864615398
2016-04-14 00:00:00-04:00,4.62301178288159
2016-04-15 00:00:00-04:00,4.630320383109448
2016-04-18 00:00:00-04:00,4.63378242138289
2016-04-19 00:00:00-04:00,4.640670157893841
2016-04-20 00:00:00-04:00,4.636543063626077
2016-04-21 00:00:00-04:00,4.585191197315963
2016-04-22 00:00:00-04:00,4.611417567652582
2016-04-25 00:00:00-04:00,4.606191316678325
2016-04-26 00:00:00-04:00,4.6145928919092105
2016-04-27 00:00:00-04:00,4.609648895849804
2016-04-28 00:00:00-04:00,4.607699942438643
2016-04-29 00:00:00-04:00,4.5863691367180905
2016-05-02 00:00:00-04:00,4.594039746238456
2016-05-03 00:00:00-04:00,4.578274156980853
2016-05-04 00:00:00-04:00,4.569928910083592
2016-05-05 00:00:00-04:00,4.569836914257798
2016-05-06 00:00:00-04:00,4.57103788427774
2016-05-09 00:00:00-04:00,4.5629729220554305
2016-05-10 00:00:00-04:00,4.5749083007956965
2016-05-11 00:00:00-04:00,4.5627868414863055
2016-05-12 00:00:00-04:00,4.563438290226815
2016-05-13 00:00:00-04:00,4.556061569781521
2016-05-16 00:00:00-04:00,4.56965210668835
2016-05-17 00:00:00-04:00,4.558962941143276
2016-05-18 00:00:00-04:00,4.553151997066335
2016-05-19 00:00:00-04:00,4.546077340803897
2016-05-20 00:00:00-04:00,4.551458664354743
2016-05-23 00:00:00-04:00,4.5535276452798605
2016-05-24 00:00:00-04:00,4.565946781180797
2016-05-25 00:00:00-04:00,4.571130085433572
2016-05-26 00:00:00-04:00,4.565389935219316
2016-05-27 00:00:00-04:00,4.573711972822364
2016-05-31 00:00:00-04:00,4.565204224503119
2016-06-01 00:00:00-04:00,4.5679863496288196
2016-06-02 00:00:00-04:00,4.5700218457262
2016-06-03 00:00:00-04:00,4.565111395916358
2016-06-06 00:00:00-04:00,4.569282151811272
2016-06-07 00:00:00-04:00,4.566039849610081
2016-06-08 00:00:00-04:00,4.5951200042637605
2016-06-09 00:00:00-04:00,4.590422150084547
2016-06-10 00:00:00-04:00,4.5795877008023975
2016-06-13 00:00:00-04:00,4.565297362063432
2016-06-14 00:00:00-04:00,4.559616485662958
2016-06-15 00:00:00-04:00,4.555311633607184
2016-06-16 00:00:00-04:00,4.558495405192235
2016-06-17 00:00:00-04:00,4.569836914257798
2016-06-20 00:00:00-04:00,4.572052970405576
2016-06-21 00:00:00-04:00,4.568727081432537
2016-06-22 00:00:00-04:00,4.566410767789118
2016-06-23 00:00:00-04:00,4.59755051639673
2016-06-24 00:00:00-04:00,4.518144632095768
2016-06-27 00:00:00-04:00,4.478023917458014
2016-06-28 00:00:00-04:00,4.496794995534343
2016-06-29 00:00:00-04:00,4.515805606263529
2016-06-30 00:00:00-04:00,4.531872713866184
2016-07-01 00:00:00-04:00,4.535418964936589
2016-07-05 00:00:00-04:00,4.517365370196914
2016-07-06 00:00:00-04:00,4.520477950539882
2016-07-07 00:00:00-04:00,4.521060700171609
2016-07-08 00:00:00-04:00,4.552493810533323
2016-07-11 00:00:00-04:00,4.555217801902858
2016-07-12 00:00:00-04:00,4.574632164538672
2016-07-13 00:00:00-04:00,4.581691209278562
2016-07-14 00:00:00-04:00,4.573987969707383
2016-07-15 00:00:00-04:00,4.579862393979282
2016-07-18 00:00:00-04:00,4.580136855264674
2016-07-19 00:00:00-04:00,4.571684139514064
2016-07-20 00:00:00-04:00,4.586793439833415
2016-07-21 00:00:00-04:00,4.573619536986862
2016-07-22 00:00:00-04:00,4.564925633460417
2016-07-25 00:00:00-04:00,4.555030112076908
2016-07-26 00:00:00-04:00,4.55662379322094
2016-07-27 00:00:00-04:00,4.550328234522863
2016-07-28 00:00:00-04:00,4.544561838491439
2016-07-29 00:00:00-04:00,4.537235115341019
2016-08-01 00:00:00-04:00,4.5368530504956075
2016-08-02 00:00:00-04:00,4.527446076079064
2016-08-03 00:00:00-04:00,4.533599346218642
2016-08-04 00:00:00-04:00,4.531392336058284
2016-08-05 00:00:00-04:00,4.5345572633898765
2016-08-08 00:00:00-04:00,4.538873854530763
2016-08-09 00:00:00-04:00,4.537820425350391
2016-08-10 00:00:00-04:00,4.540881959045148
2016-08-11 00:00:00-04:00,4.541359264668896
2016-08-12 00:00:00-04:00,4.534172863344426
2016-08-15 00:00:00-04:00,4.538682419299981
2016-08-16 00:00:00-04:00,4.530897839692417
2016-08-17 00:00:00-04:00,4.530319151718049
2016-08-18 00:00:00-04:00,4.532054950700693
2016-08-19 00:00:00-04:00,4.541263626578969
2016-08-22 00:00:00-04:00,4.545836358621853
2016-08-23 00:00:00-04:00,4.557459654259863
2016-08-24 00:00:00-04:00,4.556989573400582
2016-08-25 00:00:00-04:00,4.560367909224448
2016-08-26 00:00:00-04:00,4.5509559524336325
2016-08-29 00:00:00-04:00,4.568298682714759
2016-08-30 00:00:00-04:00,4.565320307666752
2016-08-31 00:00:00-04:00,4.552184465188768
2016-09-01 00:00:00-04:00,4.553128609805809
2016-09-02 00:00:00-04:00,4.563080750165432
2016-09-06 00:00:00-04:00,4.568484532001812
2016-09-07 00:00:00-04:00,4.560180305774181
2016-09-08 00:00:00-04:00,4.546691554335588
2016-09-09 00:00:00-04:00,4.503611367547299
2016-09-12 00:00:00-04:00,4.522274335381515
2016-09-13 00:00:00-04:00,4.506581513098834
2016-09-14 00:00:00-04:00,4.501825273406228
2016-09-15 00:00:00-04:00,4.5073720810995015
2016-09-16 00:00:00-04:00,4.4971460103759116
2016-09-19 00:00:00-04:00,4.50579040387145
2016-09-20 00:00:00-04:00,4.507569520337628
2016-09-21 00:00:00-04:00,4.51935058678597
2016-09-22 00:00:00-04:00,4.525965311590903
2016-09-23 00:00:00-04:00,4.527224975413324
2016-09-26 00:00:00-04:00,4.516222565126474
2016-09-27 00:00:00-04:00,4.519252903529297
2016-09-28 00:00:00-04:00,4.530125660433661
2016-09-29 00:00:00-04:00,4.5154388824369605
2016-09-30 00:00:00-04:00,4.528096064728178
2016-10-03 00:00:00-04:00,4.528870059212443
2016-10-04 00:00:00-04:00,4.515341066699031
2016-10-05 00:00:00-04:00,4.510724767362886
2016-10-06 00:00:00-04:00,4.516711867575124
2016-10-07 00:00:00-04:00,4.430296684039301
2016-10-10 00:00:00-04:00,4.4315759078813635
2016-10-11 00:00:00-04:00,4.414922371264308
2016-10-12 00:00:00-04:00,4.411014106152321
2016-10-13 00:00:00-04:00,4.412970379178141
2016-10-14 00:00:00-04:00,4.418167063969386
2016-10-17 00:00:00-04:00,4.4188148697488865
2016-10-18 00:00:00-04:00,4.420432229384235
2016-10-19 00:00:00-04:00,4.417735205584253
2016-10-20 00:00:00-04:00,4.4188148697488865
2016-10-21 00:00:00-04:00,4.415788701753264
2016-10-24 00:00:00-04:00,4.425054751045721
2016-10-25 00:00:00-04:00,4.4031524787730385
2016-10-26 00:00:00-04:00,4.417302976493164
2016-10-27 00:00:00-04:00,4.426233853544436
2016-10-28 00:00:00-04:00,4.421078936770408
2016-10-31 00:00:00-04:00,4.423874530999534
2016-11-01 00:00:00-04:00,4.419678019741102
2016-11-02 00:00:00-04:00,4.415788701753264
2016-11-03 00:00:00-04:00,4.408945573817615
2016-11-04 00:00:00-04:00,4.420432229384235
2016-11-07 00:00:00-05:00,4.436889666522239
2016-11-08 00:00:00-05:00,4.445263019795469
2016-11-09 00:00:00-05:00,4.45105147281298
2016-11-10 00:00:00-05:00,4.467496576663477
2016-11-11 00:00:00-05:00,4.456076076759563
2016-11-14 00:00:00-05:00,4.458995552422418
2016-11-15 00:00:00-05:00,4.460867930304633
2016-11-16 00:00:00-05:00,4.462218075135683
2016-11-17 00:00:00-05:00,4.46480905748394
2016-11-18 00:00:00-05:00,4.450001443046108
2016-11-21 00:00:00-05:00,4.460451923862567
2016-11-22 00:00:00-05:00,4.464912469492133
2016-11-23 00:00:00-05:00,4.474901722446861
2016-11-25 00:00:00-05:00,4.480419880981855
2016-11-28 00:00:00-05:00,4.47243942840594
2016-11-29 00:00:00-05:00,4.479094191616147
2016-11-30 00:00:00-05:00,4.4577452026392
2016-12-01 00:00:00-05:00,4.450526729330074
2016-12-02 00:00:00-05:00,4.443572731933506
2016-12-05 00:00:00-05:00,4.4583705287737745
2016-12-06 00:00:00-05:00,4.460763922880877
2016-12-07 00:00:00-05:00,4.480929087912801
2016-12-08 00:00:00-05:00,4.493379416603014
2016-12-09 00:00:00-05:00,4.492272401482346
2016-12-12 00:00:00-05:00,4.485704961556481
2016-12-13 00:00:00-05:00,4.469353032191616
2016-12-14 00:00:00-05:00,4.460244076206302
2016-12-15 00:00:00-05:00,4.459516136630811
2016-12-16 00:00:00-05:00,4.457641400436944
2016-12-19 00:00:00-05:00,4.460763922880877
2016-12-20 00:00:00-05:00,4.4547179628940246
2016-12-21 00:00:00-05:00,4.457119839100295
2016-12-22 00:00:00-05:00,4.44800351344565
2016-12-23 00:00:00-05:00,4.444735229247467
2016-12-27 00:00:00-05:00,4.456911297650555
2016-12-28 00:00:00-05:00,4.444523999170099
2016-12-29 00:00:00-05:00,4.451261506702187
2016-12-30 00:00:00-05:00,4.445473914834435
2017-01-03 00:00:00-05:00,4.4506317178662504
2017-01-04 00:00:00-05:00,4.471617256440803
2017-01-05 00:00:00-05:00,4.454508565100823
2017-01-06 00:00:00-05:00,4.454194785447591
2017-01-09 00:00:00-05:00,4.4621139439669335
2017-01-10 00:00:00-05:00,4.4625290837336085
2017-01-11 00:00:00-05:00,4.4650160463523125
2017-01-12 00:00:00-05:00,4.467496576663477
2017-01-13 00:00:00-05:00,4.46180271815513
2017-01-17 00:00:00-05:00,4.458162336384875
2017-01-18 00:00:00-05:00,4.465636668297174
2017-01-19 00:00:00-05:00,4.4739789311731695
2017-01-20 00:00:00-05:00,4.489246535105882
2017-01-23 00:00:00-05:00,4.5016941342535235
2017-01-24 00:00:00-05:00,4.517136863650307
2017-01-25 00:00:00-05:00,4.510038800318771
2017-01-26 00:00:00-05:00,4.517627967443418
2017-01-27 00:00:00-05:00,4.519295552797065
2017-01-30 00:00:00-05:00,4.519393398142059
2017-01-31 00:00:00-05:00,4.499396750075238
2017-02-01 00:00:00-05:00,4.504881270824444
2017-02-02 00:00:00-05:00,4.505080045665365
2017-02-03 00:00:00-05:00,4.5086531854339835
2017-02-06 00:00:00-05:00,4.49849629806184
2017-02-07 00:00:00-05:00,4.499396750075238
2017-02-08 00:00:00-05:00,4.500296392004196
2017-02-09 00:00:00-05:00,4.5005959517062015
2017-02-10 00:00:00-05:00,4.50468245646423
2017-02-13 00:00:00-05:00,4.507364256756177
2017-02-14 00:00:00-05:00,4.514874975181795
2017-02-15 00:00:00-05:00,4.518131564753051
2017-02-16 00:00:00-05:00,4.5207877964695635
2017-02-17 00:00:00-05:00,4.526666521904954
2017-02-21 00:00:00-05:00,4.53280152864304
2017-02-22 00:00:00-05:00,4.530955361389823
2017-02-23 00:00:00-05:00,4.528910488818597
2017-02-24 00:00:00-05:00,4.535806811521057
2017-02-27 00:00:00-05:00,4.527447642824675
2017-02-28 00:00:00-05:00,4.527252192978915
2017-03-01 00:00:00-05:00,4.535613152400902
2017-03-02 00:00:00-05:00,4.5267639787878915
2017-03-03 00:00:00-05:00,4.523633353734655
2017-03-06 00:00:00-05:00,4.515171452229308
2017-03-07 00:00:00-05:00,4.511012669553921
2017-03-08 00:00:00-05:00,4.56931164885388
2017-03-09 00:00:00-05:00,4.532121762553206
2017-03-10 00:00:00-05:00,4.523927494095027
2017-03-13 00:00:00-04:00,4.529690024127146
2017-03-14 00:00:00-04:00,4.520394993175394
2017-03-15 00:00:00-04:00,4.542848363059696
2017-03-16 00:00:00-04:00,4.538803089728722
2017-03-17 00:00:00-04:00,4.54716415529612
2017-03-20 00:00:00-04:00,4.557446850625679
2017-03-21 00:00:00-04:00,4.547068343070545
2017-03-22 00:00:00-04:00,4.544864555494325
2017-03-23 00:00:00-04:00,4.548407426073261
2017-03-24 00:00:00-04:00,4.54044219377701
2017-03-27 00:00:00-04:00,4.540731269264835
2017-03-28 00:00:00-04:00,4.551747309525869
2017-03-29 00:00:00-04:00,4.5593395282318125
2017-03-30 00:00:00-04:00,4.554221118814454
2017-03-31 00:00:00-04:00,4.552794699025049
2017-04-03 00:00:00-04:00,4.552794699025049
2017-04-04 00:00:00-04:00,4.549840113213054
2017-04-05 00:00:00-04:00,4.552032974934278
2017-04-06 00:00:00-04:00,4.554601100540734
2017-04-07 00:00:00-04:00,4.561983304990836
2017-04-10 00:00:00-04:00,4.559528567176195
2017-04-11 00:00:00-04:00,4.56207769885188
2017-04-12 00:00:00-04:00,4.552604221876806
2017-04-13 00:00:00-04:00,4.546493762284768
2017-04-17 00:00:00-04:00,4.555740260330148
2017-04-18 00:00:00-04:00,4.549553901260142
2017-04-19 00:00:00-04:00,4.552032974934278
2017-04-20 00:00:00-04:00,4.564996162133212
2017-04-21 00:00:00-04:00,4.56094550043317
2017-04-24 00:00:00-04:00,4.580296505751691
2017-04-25 00:00:00-04:00,4.605979947154333
2017-04-26 00:00:00-04:00,4.602907190332134
2017-04-27 00:00:00-04:00,4.610212156623599
2017-04-28 00:00:00-04:00,4.597097374633694
2017-05-01 00:00:00-04:00,4.593631859402183
2017-05-02 00:00:00-04:00,4.593723312747554
2017-05-03 00:00:00-04:00,4.591253684993035
2017-05-04 00:00:00-04:00,4.597552361455037
2017-05-05 00:00:00-04:00,4.603630992393597
2017-05-08 00:00:00-04:00,4.587801981689056
2017-05-09 00:00:00-04:00,4.582438564817134
2017-05-10 00:00:00-04:00,4.582438564817134
2017-05-11 00:00:00-04:00,4.578815886630113
2017-05-12 00:00:00-04:00,4.575646596597026
2017-05-15 00:00:00-04:00,4.583643057763023
2017-05-16 00:00:00-04:00,4.57835041177488
2017-05-17 00:00:00-04:00,4.560218451733714
2017-05-18 00:00:00-04:00,4.559364847307073
2017-05-19 00:00:00-04:00,4.5719996576696635
2017-05-22 00:00:00-04:00,4.569090676662339
2017-05-23 00:00:00-04:00,4.571718220270471
2017-05-24 00:00:00-04:00,4.573965300843829
2017-05-25 00:00:00-04:00,4.5736844949187505
2017-05-26 00:00:00-04:00,4.576766441508075
2017-05-30 00:00:00-04:00,4.569654399207012
2017-05-31 00:00:00-04:00,4.568526715296783
2017-06-01 00:00:00-04:00,4.594512011136082
2017-06-02 00:00:00-04:00,4.605988408891672
2017-06-05 00:00:00-04:00,4.587156197076776
2017-06-06 00:00:00-04:00,4.587340671858373
2017-06-07 00:00:00-04:00,4.582438564817134
2017-06-08 00:00:00-04:00,4.58308740221087
2017-06-09 00:00:00-04:00,4.601541019411053
2017-06-12 00:00:00-04:00,4.603449345840074
2017-06-13 00:00:00-04:00,4.6163495290484295
2017-06-14 00:00:00-04:00,4.615721774062358
2017-06-15 00:00:00-04:00,4.614106123970235
2017-06-16 00:00:00-04:00,4.612667644439205
2017-06-19 00:00:00-04:00,4.612217818009404
2017-06-20 00:00:00-04:00,4.6092433004818725
2017-06-21 00:00:00-04:00,4.608340357097436
2017-06-22 00:00:00-04:00,4.607345857049216
2017-06-23 00:00:00-04:00,4.608340357097436
2017-06-26 00:00:00-04:00,4.609604462351268
2017-06-27 00:00:00-04:00,4.6066221495670945
2017-06-28 00:00:00-04:00,4.611857523136549
2017-06-29 00:00:00-04:00,4.598990547798495
2017-06-30 00:00:00-04:00,4.60181342310429
2017-07-03 00:00:00-04:00,4.6077076286287015
2017-07-05 00:00:00-04:00,4.608340357097436
2017-07-06 00:00:00-04:00,4.602631948466101
2017-07-07 00:00:00-04:00,4.611227244370094
2017-07-10 00:00:00-04:00,4.611047275933479
2017-07-11 00:00:00-04:00,4.6109569382262645
2017-07-12 00:00:00-04:00,4.6187663033172495
2017-07-13 00:00:00-04:00,4.62376102518069
2017-07-14 00:00:00-04:00,4.627313418021489
2017-07-17 00:00:00-04:00,4.628730923731831
2017-07-18 00:00:00-04:00,4.628642318601208
2017-07-19 00:00:00-04:00,4.63438056790259
2017-07-20 00:00:00-04:00,4.571905643671761
2017-07-21 00:00:00-04:00,4.56862073094745
2017-07-24 00:00:00-04:00,4.559364847307073
2017-07-25 00:00:00-04:00,4.575553396378056
2017-07-26 00:00:00-04:00,4.572186949483039
2017-07-27 00:00:00-04:00,4.566550183485315
2017-07-28 00:00:00-04:00,4.565419229741722
2017-07-31 00:00:00-04:00,4.558035808145523
2017-08-01 00:00:00-04:00,4.5567045998748075
2017-08-02 00:00:00-04:00,4.567115418832091
2017-08-03 00:00:00-04:00,4.552509733678894
2017-08-04 00:00:00-04:00,4.555752845356731
2017-08-07 00:00:00-04:00,4.556989733520223
2017-08-08 00:00:00-04:00,4.544591506376491
2017-08-09 00:00:00-04:00,4.544301274501075
2017-08-10 00:00:00-04:00,4.524368707905929
2017-08-11 00:00:00-04:00,4.518430073472459
2017-08-14 00:00:00-04:00,4.536434473772076
2017-08-15 00:00:00-04:00,4.540132679701052
2017-08-16 00:00:00-04:00,4.54787393090445
2017-08-17 00:00:00-04:00,4.537603729156831
2017-08-18 00:00:00-04:00,4.531743157758233
2017-08-21 00:00:00-04:00,4.5347754392579285
2017-08-22 00:00:00-04:00,4.555556035890066
2017-08-23 00:00:00-04:00,4.546813122428246
2017-08-24 00:00:00-04:00,4.547584973534317
2017-08-25 00:00:00-04:00,4.547681221126838
2017-08-28 00:00:00-04:00,4.551818532341568
2017-08-29 00:00:00-04:00,4.549030136639214
2017-08-30 00:00:00-04:00,4.5485485668836585
2017-08-31 00:00:00-04:00,4.5534493935236755
2017-09-01 00:00:00-04:00,4.556034323796837
2017-09-05 00:00:00-04:00,4.544978081134488
2017-09-06 00:00:00-04:00,4.552298449893463
2017-09-07 00:00:00-04:00,4.550473536594076
2017-09-08 00:00:00-04:00,4.546427256537174
2017-09-11 00:00:00-04:00,4.568481603639488
2017-09-12 00:00:00-04:00,4.575913968578374
2017-09-13 00:00:00-04:00,4.56051798260391
2017-09-14 00:00:00-04:00,4.573943497320104
2017-09-15 00:00:00-04:00,4.572251763994889
2017-09-18 00:00:00-04:00,4.576944210196005
2017-09-19 00:00:00-04:00,4.591260802374043
2017-09-20 00:00:00-04:00,4.5955898336814895
2017-09-21 00:00:00-04:00,4.597242497697268
2017-09-22 00:00:00-04:00,4.595130099672696
2017-09-25 00:00:00-04:00,4.598801145984823
2017-09-26 00:00:00-04:00,4.592828717392281
2017-09-27 00:00:00-04:00,4.588024989558479
2017-09-28 00:00:00-04:00,4.5959571915729915
2017-09-29 00:00:00-04:00,4.594210151372252
2017-10-02 00:00:00-04:00,4.615516411594617
2017-10-03 00:00:00-04:00,4.624396104146512
2017-10-04 00:00:00-04:00,4.62680398550373
2017-10-05 00:00:00-04:00,4.6336393913549045
2017-10-06 00:00:00-04:00,4.635848918935869
2017-10-09 00:00:00-04:00,4.630183256229854
2017-10-10 00:00:00-04:00,4.627872263613707
2017-10-11 00:00:00-04:00,4.6281393786056135
2017-10-12 00:00:00-04:00,4.636907952751071
2017-10-13 00:00:00-04:00,4.637789169614248
2017-10-16 00:00:00-04:00,4.634877639266195
2017-10-17 00:00:00-04:00,4.633020100044233
2017-10-18 00:00:00-04:00,4.632311698892418
2017-10-19 00:00:00-04:00,4.644900544851833
2017-10-20 00:00:00-04:00,4.6746350835043975
2017-10-23 00:00:00-04:00,4.667219645297371
2017-10-24 00:00:00-04:00,4.671914029655848
2017-10-25 00:00:00-04:00,4.6742953119126325
2017-10-26 00:00:00-04:00,4.682332961874223
2017-10-27 00:00:00-04:00,4.676077595240857
2017-10-30 00:00:00-04:00,4.660955018618614
2017-10-31 00:00:00-04:00,4.6616432793290965
2017-11-01 00:00:00-04:00,4.658886666659651
2017-11-02 00:00:00-04:00,4.660955018618614
2017-11-03 00:00:00-04:00,4.664135070103267
2017-11-06 00:00:00-05:00,4.662503335842552
2017-11-07 00:00:00-05:00,4.662503335842552
2017-11-08 00:00:00-05:00,4.660610421826102
2017-11-09 00:00:00-05:00,4.655931222815435
2017-11-10 00:00:00-05:00,4.651927631403275
2017-11-13 00:00:00-05:00,4.650880530416292
2017-11-14 00:00:00-05:00,4.649133262648401
2017-11-15 00:00:00-05:00,4.640702335007279
2017-11-16 00:00:00-05:00,4.6461554728394905
2017-11-17 00:00:00-05:00,4.6445753814239135
2017-11-20 00:00:00-05:00,4.653757314991847
2017-11-21 00:00:00-05:00,4.657753530014264
2017-11-22 00:00:00-05:00,4.657146535614507
2017-11-24 00:00:00-05:00,4.664321123660115
2017-11-27 00:00:00-05:00,4.662165325933719
2017-11-28 00:00:00-05:00,4.674944927434918
2017-11-29 00:00:00-05:00,4.6721286815922785
2017-11-30 00:00:00-05:00,4.670760199935429
2017-12-01 00:00:00-05:00,4.662855635128434
2017-12-04 00:00:00-05:00,4.676818028047766
2017-12-05 00:00:00-05:00,4.669904143577862
2017-12-06 00:00:00-05:00,4.665096106163675
2017-12-07 00:00:00-05:00,4.664407342387588
2017-12-08 00:00:00-05:00,4.662769354528746
2017-12-11 00:00:00-05:00,4.660696961066018
2017-12-12 00:00:00-05:00,4.662510612139205
2017-12-13 00:00:00-05:00,4.665612260123492
2017-12-14 00:00:00-05:00,4.644487509018696
2017-12-15 00:00:00-05:00,4.6555835844085305
2017-12-18 00:00:00-05:00,4.66457939807783
2017-12-19 00:00:00-05:00,4.666128219587963
2017-12-20 00:00:00-05:00,4.664837893306381
2017-12-21 00:00:00-05:00,4.665010018665094
2017-12-22 00:00:00-05:00,4.665096106163675
2017-12-26 00:00:00-05:00,4.665870129531193
2017-12-27 00:00:00-05:00,4.667674502616762
2017-12-28 00:00:00-05:00,4.6734950080450695
2017-12-29 00:00:00-05:00,4.670503302735521
2018-01-02 00:00:00-05:00,4.680553665747152
2018-01-03 00:00:00-05:00,4.682162945122537
2018-01-04 00:00:00-05:00,4.676052293472853
2018-01-05 00:00:00-05:00,4.688320032842893
2018-01-08 00:00:00-05:00,4.686637026526232
2018-01-09 00:00:00-05:00,4.682416441031284
2018-01-10 00:00:00-05:00,4.668704174431284
2018-01-11 00:00:00-05:00,4.6769031760581745
2018-01-12 00:00:00-05:00,4.681993676635397
2018-01-16 00:00:00-05:00,4.668961534178712
2018-01-17 00:00:00-05:00,4.650444072521371
2018-01-18 00:00:00-05:00,4.684022375329908
2018-01-19 00:00:00-05:00,4.6842757528343455
2018-01-22 00:00:00-05:00,4.670160980246742
2018-01-23 00:00:00-05:00,4.674177614253858
2018-01-24 00:00:00-05:00,4.688488444531877
2018-01-25 00:00:00-05:00,4.69910925635164
2018-01-26 00:00:00-05:00,4.709536593487322
2018-01-29 00:00:00-05:00,4.693771161170978
2018-01-30 00:00:00-05:00,4.683515568728826
2018-01-31 00:00:00-05:00,4.686721272275775
2018-02-01 00:00:00-05:00,4.677328310512992
2018-02-02 00:00:00-05:00,4.66009175122553
2018-02-05 00:00:00-05:00,4.628189482683426
2018-02-06 00:00:00-05:00,4.6457166542732296
2018-02-07 00:00:00-05:00,4.647207311078697
2018-02-08 00:00:00-05:00,4.613073291739517
2018-02-09 00:00:00-05:00,4.631666323212401
2018-02-12 00:00:00-05:00,4.645892102258498
2018-02-13 00:00:00-05:00,4.650967697110333
2018-02-14 00:00:00-05:00,4.666214067329438
2018-02-15 00:00:00-05:00,4.668972127819879
2018-02-16 00:00:00-05:00,4.6687141264286485
2018-02-20 00:00:00-05:00,4.662149615169748
2018-02-21 00:00:00-05:00,4.6640542946792936
2018-02-22 00:00:00-05:00,4.666127788895095
2018-02-23 00:00:00-05:00,4.679843254835849
2018-02-26 00:00:00-05:00,4.680439037579574
2018-02-27 00:00:00-05:00,4.661369387828946
2018-02-28 00:00:00-05:00,4.636165097430953
2018-03-01 00:00:00-05:00,4.6242660217940195
2018-03-02 00:00:00-05:00,4.6164956568450295
2018-03-05 00:00:00-05:00,4.639007099344293
2018-03-06 00:00:00-05:00,4.659285920999833
2018-03-07 00:00:00-05:00,4.658851381768132
2018-03-08 00:00:00-05:00,4.662149615169748
2018-03-09 00:00:00-05:00,4.6814596856144775
2018-03-12 00:00:00-04:00,4.671293006536921
2018-03-13 00:00:00-04:00,4.667938934451395
2018-03-14 00:00:00-04:00,4.659025046615224
2018-03-15 00:00:00-04:00,4.652396919279741
2018-03-16 00:00:00-04:00,4.658068648160845
2018-03-19 00:00:00-04:00,4.643078222255931
2018-03-20 00:00:00-04:00,4.648627085002838
2018-03-21 00:00:00-04:00,4.64950497314802
2018-03-22 00:00:00-04:00,4.6260644174533265
2018-03-23 00:00:00-04:00,4.609487254779373
2018-03-26 00:00:00-04:00,4.6316188450266305
2018-03-27 00:00:00-04:00,4.631440131487943
2018-03-28 00:00:00-04:00,4.613952915789889
2018-03-29 00:00:00-04:00,4.628666315046754
2018-04-02 00:00:00-04:00,4.598281047012982
2018-04-03 00:00:00-04:00,4.6158606718212996
2018-04-04 00:00:00-04:00,4.621381754481973
2018-04-05 00:00:00-04:00,4.629293372004212
2018-04-06 00:00:00-04:00,4.608664896342767
2018-04-09 00:00:00-04:00,4.61067388791922
2018-04-10 00:00:00-04:00,4.6174930856215415
2018-04-11 00:00:00-04:00,4.60765854253751
2018-04-12 00:00:00-04:00,4.61458926413817
2018-04-13 00:00:00-04:00,4.614225815707069
2018-04-16 00:00:00-04:00,4.6301885392739655
2018-04-17 00:00:00-04:00,4.641840900073366
2018-04-18 00:00:00-04:00,4.64281323163319
2018-04-19 00:00:00-04:00,4.610947532319993
2018-04-20 00:00:00-04:00,4.603899848200605
2018-04-23 00:00:00-04:00,4.603991589494346
2018-04-24 00:00:00-04:00,4.575012412132014
2018-04-25 00:00:00-04:00,4.594764827614371
2018-04-26 00:00:00-04:00,4.593094932917755
2018-04-27 00:00:00-04:00,4.5955987689337245
2018-04-30 00:00:00-04:00,4.576051673004955
2018-05-01 00:00:00-04:00,4.585826273046472
2018-05-02 00:00:00-04:00,4.574444779456037
2018-05-03 00:00:00-04:00,4.56732454627495
2018-05-04 00:00:00-04:00,4.58095103307534
2018-05-07 00:00:00-04:00,4.57916361735001
2018-05-08 00:00:00-04:00,4.583578899447407
2018-05-09 00:00:00-04:00,4.591268538600291
2018-05-10 00:00:00-04:00,4.58244871101764
2018-05-11 00:00:00-04:00,4.527433624487204
2018-05-14 00:00:00-04:00,4.552410089218129
2018-05-15 00:00:00-04:00,4.552992615309679
2018-05-16 00:00:00-04:00,4.55754407411884
2018-05-17 00:00:00-04:00,4.5662980631931775
2018-05-18 00:00:00-04:00,4.5714565891440895
2018-05-21 00:00:00-04:00,4.572218489916221
2018-05-22 00:00:00-04:00,4.5511467437684505
2018-05-23 00:00:00-04:00,4.549881961519721
2018-05-24 00:00:00-04:00,4.547835230327616
2018-05-25 00:00:00-04:00,4.556577500639967
2018-05-29 00:00:00-04:00,4.533489111317793
2018-05-30 00:00:00-04:00,4.537341508869552
2018-05-31 00:00:00-04:00,4.53230058951529
2018-06-01 00:00:00-04:00,4.543043386472055
2018-06-04 00:00:00-04:00,4.547152108525057
2018-06-05 00:00:00-04:00,4.547835230327616
2018-06-06 00:00:00-04:00,4.561690029751676
2018-06-07 00:00:00-04:00,4.55357480226213
2018-06-08 00:00:00-04:00,4.563804608338661
2018-06-11 00:00:00-04:00,4.561690029751676
2018-06-12 00:00:00-04:00,4.557833848076382
2018-06-13 00:00:00-04:00,4.555609831652103
2018-06-14 00:00:00-04:00,4.56197868464063
2018-06-15 00:00:00-04:00,4.575545223263313
2018-06-18 00:00:00-04:00,4.571932855007895
2018-06-19 00:00:00-04:00,4.563612638116836
2018-06-20 00:00:00-04:00,4.573265304232553
2018-06-21 00:00:00-04:00,4.565244005545408
2018-06-22 00:00:00-04:00,4.575924888218269
2018-06-25 00:00:00-04:00,4.572979810637479
2018-06-26 00:00:00-04:00,4.579806522335058
2018-06-27 00:00:00-04:00,4.572979810637479
2018-06-28 00:00:00-04:00,4.5787666149983774
2018-06-29 00:00:00-04:00,4.559764037194081
2018-07-02 00:00:00-04:00,4.549589873788748
2018-07-03 00:00:00-04:00,4.542945311175317
2018-07-05 00:00:00-04:00,4.55085526694256
2018-07-06 00:00:00-04:00,4.552701676094508
2018-07-09 00:00:00-04:00,4.561593846064507
2018-07-10 00:00:00-04:00,4.570026191994674
2018-07-11 00:00:00-04:00,4.559956747584889
2018-07-12 00:00:00-04:00,4.5608237243248935
2018-07-13 00:00:00-04:00,4.5622672562319835
2018-07-16 00:00:00-04:00,4.546566331028616
2018-07-17 00:00:00-04:00,4.5758300640578975
2018-07-18 00:00:00-04:00,4.588462167303023
2018-07-19 00:00:00-04:00,4.585084170457763
2018-07-20 00:00:00-04:00,4.571932855007895
2018-07-23 00:00:00-04:00,4.5662980631931775
2018-07-24 00:00:00-04:00,4.581883254581538
2018-07-25 00:00:00-04:00,4.611885790707678
2018-07-26 00:00:00-04:00,4.624434945941081
2018-07-27 00:00:00-04:00,4.613348928974509
2018-07-30 00:00:00-04:00,4.616086415005839
2018-07-31 00:00:00-04:00,4.624434945941081
2018-08-01 00:00:00-04:00,4.61599539931138
2018-08-02 00:00:00-04:00,4.612251757081954
2018-08-03 00:00:00-04:00,4.627052053710246
2018-08-06 00:00:00-04:00,4.621357732730276
2018-08-07 00:00:00-04:00,4.6180891527115016
2018-08-08 00:00:00-04:00,4.61161126590974
2018-08-09 00:00:00-04:00,4.615648392023047
2018-08-10 00:00:00-04:00,4.599494548830521
2018-08-13 00:00:00-04:00,4.586569146676502
2018-08-14 00:00:00-04:00,4.593801871052983
2018-08-15 00:00:00-04:00,4.595484915523334
2018-08-16 00:00:00-04:00,4.603580635969056
2018-08-17 00:00:00-04:00,4.6083883450504155
2018-08-20 00:00:00-04:00,4.620398793690313
2018-08-21 00:00:00-04:00,4.632626325389267
2018-08-22 00:00:00-04:00,4.628295721864602
2018-08-23 00:00:00-04:00,4.620763010422525
2018-08-24 00:00:00-04:00,4.628476712523578
2018-08-27 00:00:00-04:00,4.633076340910671
2018-08-28 00:00:00-04:00,4.621673722766834
2018-08-29 00:00:00-04:00,4.637834214333323
2018-08-30 00:00:00-04:00,4.6288381485418615
2018-08-31 00:00:00-04:00,4.627753149981585
2018-09-04 00:00:00-04:00,4.621764523286036
2018-09-05 00:00:00-04:00,4.628295721864602
2018-09-06 00:00:00-04:00,4.6408746895142
2018-09-07 00:00:00-04:00,4.63649004900353
2018-09-10 00:00:00-04:00,4.641677686253891
2018-09-11 00:00:00-04:00,4.646128523752246
2018-09-12 00:00:00-04:00,4.641142328614337
2018-09-13 00:00:00-04:00,4.6493209601406065
2018-09-14 00:00:00-04:00,4.64239124691421
2018-09-17 00:00:00-04:00,4.6496750875384985
2018-09-18 00:00:00-04:00,4.652150182984635
2018-09-19 00:00:00-04:00,4.667742516291049
2018-09-20 00:00:00-04:00,4.675275943033697
2018-09-21 00:00:00-04:00,4.675793624350692
2018-09-24 00:00:00-04:00,4.647016436052937
2018-09-25 00:00:00-04:00,4.636759011866467
2018-09-26 00:00:00-04:00,4.626395281560358
2018-09-27 00:00:00-04:00,4.6136319040889635
2018-09-28 00:00:00-04:00,4.6149155597264775
2018-10-01 00:00:00-04:00,4.620580918638147
2018-10-02 00:00:00-04:00,4.624763356990152
2018-10-03 00:00:00-04:00,4.611243624212575
2018-10-04 00:00:00-04:00,4.6087571137943195
2018-10-05 00:00:00-04:00,4.604692166481533
2018-10-08 00:00:00-04:00,4.6190306696198595
2018-10-09 00:00:00-04:00,4.513041394968548
2018-10-10 00:00:00-04:00,4.523537909191691
2018-10-11 00:00:00-04:00,4.490674596969165
2018-10-12 00:00:00-04:00,4.477199649365271
2018-10-15 00:00:00-04:00,4.488285098724663
2018-10-16 00:00:00-04:00,4.509178117866973
2018-10-17 00:00:00-04:00,4.508566972394619
2018-10-18 00:00:00-04:00,4.517394356723012
2018-10-19 00:00:00-04:00,4.541350400638686
2018-10-22 00:00:00-04:00,4.54400974178095
2018-10-23 00:00:00-04:00,4.533826170594779
2018-10-24 00:00:00-04:00,4.505095898724373
2018-10-25 00:00:00-04:00,4.563974360742665
2018-10-26 00:00:00-04:00,4.555453086304163
2018-10-29 00:00:00-04:00,4.556036247067166
2018-10-30 00:00:00-04:00,4.568879703101637
2018-10-31 00:00:00-04:00,4.57719279790445
2018-11-01 00:00:00-04:00,4.592771788890408
2018-11-02 00:00:00-04:00,4.594363252088179
2018-11-05 00:00:00-05:00,4.590051126258602
2018-11-06 00:00:00-05:00,4.598563479264245
2018-11-07 00:00:00-05:00,4.61857436255545
2018-11-08 00:00:00-05:00,4.615083577803321
2018-11-09 00:00:00-05:00,4.6062102180872815
2018-11-12 00:00:00-05:00,4.584530483588767
2018-11-13 00:00:00-05:00,4.574134990000619
2018-11-14 00:00:00-05:00,4.584055895615229
2018-11-15 00:00:00-05:00,4.600344029387767
2018-11-16 00:00:00-05:00,4.601184133328672
2018-11-19 00:00:00-05:00,4.606117460570493
2018-11-20 00:00:00-05:00,4.589074158842656
2018-11-21 00:00:00-05:00,4.597819320884439
2018-11-23 00:00:00-05:00,4.602303226179576
2018-11-26 00:00:00-05:00,4.6027690052888355
2018-11-27 00:00:00-05:00,4.588318324797749
2018-11-28 00:00:00-05:00,4.6055601246005855
2018-11-29 00:00:00-05:00,4.613241241206725
2018-11-30 00:00:00-05:00,4.621138582670507
2018-12-03 00:00:00-05:00,4.632326103494526
2018-12-04 00:00:00-05:00,4.597070147293011
2018-12-06 00:00:00-05:00,4.588223815060731
2018-12-07 00:00:00-05:00,4.563727315730118
2018-12-10 00:00:00-05:00,4.565952732106842
2018-12-11 00:00:00-05:00,4.561884998452328
2018-12-12 00:00:00-05:00,4.565952732106842
2018-12-13 00:00:00-05:00,4.5408977427299115
2018-12-14 00:00:00-05:00,4.533336893417862
2018-12-17 00:00:00-05:00,4.502817988699998
2018-12-18 00:00:00-05:00,4.4983810210377815
2018-12-19 00:00:00-05:00,4.495585095031033
2018-12-20 00:00:00-05:00,4.50220032105284
2018-12-21 00:00:00-05:00,4.494443702834682
2018-12-24 00:00:00-05:00,4.486940349481268
2018-12-26 00:00:00-05:00,4.52461103206207
2018-12-27 00:00:00-05:00,4.54603816592716
2018-12-28 00:00:00-05:00,4.5441626955529575
2018-12-31 00:00:00-05:00,4.553992931973887
2019-01-02 00:00:00-05:00,4.548696872460426
2019-01-03 00:00:00-05:00,4.51142911750204
2019-01-04 00:00:00-05:00,4.531037529504022
2019-01-07 00:00:00-05:00,4.534335108994934
2019-01-08 00:00:00-05:00,4.542581098105591
2019-01-09 00:00:00-05:00,4.546826386448983
2019-01-10 00:00:00-05:00,4.558092909457422
2019-01-11 00:00:00-05:00,4.550367161108174
2019-01-14 00:00:00-05:00,4.551348287474747
2019-01-15 00:00:00-05:00,4.541888118021085
2019-01-16 00:00:00-05:00,4.557020716188385
2019-01-17 00:00:00-05:00,4.60295536325182
2019-01-18 00:00:00-05:00,4.58481487913723
2019-01-22 00:00:00-05:00,4.574518416069453
2019-01-23 00:00:00-05:00,4.552230559368678
2019-01-24 00:00:00-05:00,4.553895041363876
2019-01-25 00:00:00-05:00,4.566339466357527
2019-01-28 00:00:00-05:00,4.56826970990993
2019-01-29 00:00:00-05:00,4.575763438225718
2019-01-30 00:00:00-05:00,4.581204253271659
2019-01-31 00:00:00-05:00,4.5849097115863495
2019-02-01 00:00:00-05:00,4.588034613561113
2019-02-04 00:00:00-05:00,4.592656531580268
2019-02-05 00:00:00-05:00,4.599689956445326
2019-02-06 00:00:00-05:00,4.591149626192988
2019-02-07 00:00:00-05:00,4.579298526238756
2019-02-08 00:00:00-05:00,4.579393804951572
2019-02-11 00:00:00-05:00,4.578057978692337
2019-02-12 00:00:00-05:00,4.605281340088566
2019-02-13 00:00:00-05:00,4.607879905544789
2019-02-14 00:00:00-05:00,4.602023532087329
2019-02-15 00:00:00-05:00,4.619124268488133
2019-02-19 00:00:00-05:00,4.615635783661446
2019-02-20 00:00:00-05:00,4.624881705187593
2019-02-21 00:00:00-05:00,4.632812693784903
2019-02-22 00:00:00-05:00,4.6446377236065315
2019-02-25 00:00:00-05:00,4.652503310069805
2019-02-26 00:00:00-05:00,4.644906923861576
2019-02-27 00:00:00-05:00,4.651166854695541
2019-02-28 00:00:00-05:00,4.649382204246382
2019-03-01 00:00:00-05:00,4.656412915284993
2019-03-04 00:00:00-05:00,4.643919526231186
2019-03-05 00:00:00-05:00,4.638426621987931
2019-03-06 00:00:00-05:00,4.636619290326094
2019-03-07 00:00:00-05:00,4.63017596409495
2019-03-08 00:00:00-05:00,4.628262173868824
2019-03-11 00:00:00-04:00,4.643380521139875
2019-03-12 00:00:00-04:00,4.642032103650456
2019-03-13 00:00:00-04:00,4.643650060001341
2019-03-14 00:00:00-04:00,4.6287183302095585
2019-03-15 00:00:00-04:00,4.6319044231478195
2019-03-18 00:00:00-04:00,4.640230914090195
2019-03-19 00:00:00-04:00,4.63978020144709
2019-03-20 00:00:00-04:00,4.639058431911189
2019-03-21 00:00:00-04:00,4.655348227058956
2019-03-22 00:00:00-04:00,4.601078728012193
2019-03-25 00:00:00-04:00,4.604540715452139
2019-03-26 00:00:00-04:00,4.616610160247369
2019-03-27 00:00:00-04:00,4.632358772957157
2019-03-28 00:00:00-04:00,4.64714710414753
2019-03-29 00:00:00-04:00,4.6573881320991495
2019-04-01 00:00:00-04:00,4.6692777203662
2019-04-02 00:00:00-04:00,4.669452875109925
2019-04-03 00:00:00-04:00,4.672424680103389
2019-04-04 00:00:00-04:00,4.676083352014404
2019-04-05 00:00:00-04:00,4.675735469675306
2019-04-08 00:00:00-04:00,4.670852438153732
2019-04-09 00:00:00-04:00,4.669802806511348
2019-04-10 00:00:00-04:00,4.675213419144875
2019-04-11 00:00:00-04:00,4.6719007551177745
2019-04-12 00:00:00-04:00,4.681287399250644
2019-04-15 00:00:00-04:00,4.688785044089629
2019-04-16 00:00:00-04:00,4.705220078278841
2019-04-17 00:00:00-04:00,4.6966530129711215
2019-04-18 00:00:00-04:00,4.717475804915138
2019-04-22 00:00:00-04:00,4.695374454502403
2019-04-23 00:00:00-04:00,4.6986103878266325
2019-04-24 00:00:00-04:00,4.690243530249909
2019-04-25 00:00:00-04:00,4.680681510184347
2019-04-26 00:00:00-04:00,4.700224401528901
2019-04-29 00:00:00-04:00,4.69426512109697
2019-04-30 00:00:00-04:00,4.697589714499007
2019-05-01 00:00:00-04:00,4.680162036031081
2019-05-02 00:00:00-04:00,4.691271865372404
2019-05-03 00:00:00-04:00,4.698695437462597
2019-05-06 00:00:00-04:00,4.687238335060016
2019-05-07 00:00:00-04:00,4.671376912522705
2019-05-08 00:00:00-04:00,4.667525128639667
2019-05-09 00:00:00-04:00,4.661695337632967
2019-05-10 00:00:00-04:00,4.656009321474967
2019-05-13 00:00:00-04:00,4.647149810976813
2019-05-14 00:00:00-04:00,4.649932575888829
2019-05-15 00:00:00-04:00,4.653333089901367
2019-05-16 00:00:00-04:00,4.662049507303259
2019-05-17 00:00:00-04:00,4.651813169498249
2019-05-20 00:00:00-04:00,4.615090980828227
2019-05-21 00:00:00-04:00,4.626717822832885
2019-05-22 00:00:00-04:00,4.6219359712053985
2019-05-23 00:00:00-04:00,4.606515106372396
2019-05-24 00:00:00-04:00,4.615183665083289
2019-05-28 00:00:00-04:00,4.612953689074566
2019-05-29 00:00:00-04:00,4.609879766350327
2019-05-30 00:00:00-04:00,4.610439330170858
2019-05-31 00:00:00-04:00,4.585991550674957
2019-06-03 00:00:00-04:00,4.6154621193940555
2019-06-04 00:00:00-04:00,4.651276290678479
2019-06-05 00:00:00-04:00,4.656988988481784
2019-06-06 00:00:00-04:00,4.662669308686922
2019-06-07 00:00:00-04:00,4.671480589173887
2019-06-10 00:00:00-04:00,4.674983704538828
2019-06-11 00:00:00-04:00,4.696261022100624
2019-06-12 00:00:00-04:00,4.697458239512247
2019-06-13 00:00:00-04:00,4.69677443002807
2019-06-14 00:00:00-04:00,4.693690370342543
2019-06-17 00:00:00-04:00,4.679693421595858
2019-06-18 00:00:00-04:00,4.677515687148384
2019-06-19 00:00:00-04:00,4.68602501215898
2019-06-20 00:00:00-04:00,4.681953050760941
2019-06-21 00:00:00-04:00,4.6895634625842355
2019-06-24 00:00:00-04:00,4.696688938360775
2019-06-25 00:00:00-04:00,4.691284955243011
2019-06-26 00:00:00-04:00,4.6849002508937305
2019-06-27 00:00:00-04:00,4.688011426786604
2019-06-28 00:00:00-04:00,4.695062369641236
2019-07-01 00:00:00-04:00,4.71137934047354
2019-07-02 00:00:00-04:00,4.706817058007568
2019-07-03 00:00:00-04:00,4.715165543518223
2019-07-05 00:00:00-04:00,4.705715523132917
2019-07-08 00:00:00-04:00,4.692230752289148
2019-07-09 00:00:00-04:00,4.688442887019352
2019-07-10 00:00:00-04:00,4.683861108077815
2019-07-11 00:00:00-04:00,4.688960253366752
2019-07-12 00:00:00-04:00,4.697885643879551
2019-07-15 00:00:00-04:00,4.703593993753603
2019-07-16 00:00:00-04:00,4.704782745551291
2019-07-17 00:00:00-04:00,4.69420495983126
2019-07-18 00:00:00-04:00,4.697543804563025
2019-07-19 00:00:00-04:00,4.701893509789369
2019-07-22 00:00:00-04:00,4.697116532403261
2019-07-23 00:00:00-04:00,4.714157326712723
2019-07-24 00:00:00-04:00,4.7069016882115315
2019-07-25 00:00:00-04:00,4.7072403440954345
2019-07-26 00:00:00-04:00,4.7055461236543525
2019-07-29 00:00:00-04:00,4.709692055097277
2019-07-30 00:00:00-04:00,4.714157326712723
2019-07-31 00:00:00-04:00,4.700871746490583
2019-08-01 00:00:00-04:00,4.686111420341861
2019-08-02 00:00:00-04:00,4.673058474258886
2019-08-05 00:00:00-04:00,4.644539734617746
2019-08-06 00:00:00-04:00,4.6447200093369565
2019-08-07 00:00:00-04:00,4.661518097577432
2019-08-08 00:00:00-04:00,4.694548151520094
2019-08-09 00:00:00-04:00,4.687549217318816
2019-08-12 00:00:00-04:00,4.663149207082115
2019-08-13 00:00:00-04:00,4.667935566789043
2019-08-14 00:00:00-04:00,4.642229887341475
2019-08-15 00:00:00-04:00,4.636771504534878
2019-08-16 00:00:00-04:00,4.646756219610809
2019-08-19 00:00:00-04:00,4.654851937787175
2019-08-20 00:00:00-04:00,4.642955616803978
2019-08-21 00:00:00-04:00,4.646575433234964
2019-08-22 00:00:00-04:00,4.641140783049598
2019-08-23 00:00:00-04:00,4.6082721357107195
2019-08-26 00:00:00-04:00,4.614167975310935
2019-08-27 00:00:00-04:00,4.616404980158501
2019-08-28 00:00:00-04:00,4.631374731441783
2019-08-29 00:00:00-04:00,4.641503925099856
2019-08-30 00:00:00-04:00,4.647388202686094
2019-09-03 00:00:00-04:00,4.644133594054517
2019-09-04 00:00:00-04:00,4.653955627187851
2019-09-05 00:00:00-04:00,4.670143750229405
2019-09-06 00:00:00-04:00,4.6914434900707676
2019-09-09 00:00:00-04:00,4.697728683549196
2019-09-10 00:00:00-04:00,4.704230662719872
2019-09-11 00:00:00-04:00,4.707720742391012
2019-09-12 00:00:00-04:00,4.7122144106703265
2019-09-13 00:00:00-04:00,4.7220631365085985
2019-09-16 00:00:00-04:00,4.6878092891133045
2019-09-17 00:00:00-04:00,4.703719064737079
2019-09-18 00:00:00-04:00,4.722482054890281
2019-09-19 00:00:00-04:00,4.732976872571625
2019-09-20 00:00:00-04:00,4.7210577767922315
2019-09-23 00:00:00-04:00,4.713398100093591
2019-09-24 00:00:00-04:00,4.695322656272461
2019-09-25 00:00:00-04:00,4.699015351087952
2019-09-26 00:00:00-04:00,4.699015351087952
2019-09-27 00:00:00-04:00,4.7122988595179205
2019-09-30 00:00:00-04:00,4.714749086657667
2019-10-01 00:00:00-04:00,4.70081385343651
2019-10-02 00:00:00-04:00,4.679540095443176
2019-10-03 00:00:00-04:00,4.681199371165598
2019-10-04 00:00:00-04:00,4.698672508125878
2019-10-07 00:00:00-04:00,4.690838823069167
2019-10-08 00:00:00-04:00,4.661370686069866
2019-10-09 00:00:00-04:00,4.681024847602813
2019-10-10 00:00:00-04:00,4.690406503944241
2019-10-11 00:00:00-04:00,4.7203025491707
2019-10-14 00:00:00-04:00,4.703719064737079
2019-10-15 00:00:00-04:00,4.7122144106703265
2019-10-16 00:00:00-04:00,4.718538924814231
2019-10-17 00:00:00-04:00,4.737523745957758
2019-10-18 00:00:00-04:00,4.761886454410051
2019-10-21 00:00:00-04:00,4.765502174634006
2019-10-22 00:00:00-04:00,4.770223198279377
2019-10-23 00:00:00-04:00,4.763816426253083
2019-10-24 00:00:00-04:00,4.756640383568759
2019-10-25 00:00:00-04:00,4.760355835072172
2019-10-28 00:00:00-04:00,4.757691644544571
2019-10-29 00:00:00-04:00,4.768465372043134
2019-10-30 00:00:00-04:00,4.775874767347807
2019-10-31 00:00:00-04:00,4.769024953813454
2019-11-01 00:00:00-04:00,4.7715791909937355
2019-11-04 00:00:00-05:00,4.792484775417688
2019-11-05 00:00:00-05:00,4.7987110461582
2019-11-06 00:00:00-05:00,4.805515414007263
2019-11-07 00:00:00-05:00,4.805977507636702
2019-11-08 00:00:00-05:00,4.8028796114555945
2019-11-11 00:00:00-05:00,4.8050491085637566
2019-11-12 00:00:00-05:00,4.813143214347991
2019-11-13 00:00:00-05:00,4.813680581678619
2019-11-14 00:00:00-05:00,4.80929708644609
2019-11-15 00:00:00-05:00,4.80736861678891
2019-11-18 00:00:00-05:00,4.8028796114555945
2019-11-19 00:00:00-05:00,4.801870621917905
2019-11-20 00:00:00-05:00,4.783929918423775
2019-11-21 00:00:00-05:00,4.777426533351827
2019-11-22 00:00:00-05:00,4.7752759508530085
2019-11-25 00:00:00-05:00,4.794075804299221
2019-11-26 00:00:00-05:00,4.8089889279618445
2019-11-27 00:00:00-05:00,4.804971828007153
2019-11-29 00:00:00-05:00,4.802258853858405
2019-12-02 00:00:00-05:00,4.799616577900081
2019-12-03 00:00:00-05:00,4.79540528154752
2019-12-04 00:00:00-05:00,4.804274846231148
2019-12-05 00:00:00-05:00,4.819876695054233
2019-12-06 00:00:00-05:00,4.830571988754661
2019-12-09 00:00:00-05:00,4.833886316367507
2019-12-10 00:00:00-05:00,4.8300436244616956
2019-12-11 00:00:00-05:00,4.82883514675492
2019-12-12 00:00:00-05:00,4.83973459840063
2019-12-13 00:00:00-05:00,4.834111958558092
2019-12-16 00:00:00-05:00,4.835914659774984
2019-12-17 00:00:00-05:00,4.834788337239212
2019-12-18 00:00:00-05:00,4.82383435950089
2019-12-19 00:00:00-05:00,4.829666154892754
2019-12-20 00:00:00-05:00,4.8300436244616956
2019-12-23 00:00:00-05:00,4.834111958558092
2019-12-24 00:00:00-05:00,4.8380884406902425
2019-12-26 00:00:00-05:00,4.836739868496706
2019-12-27 00:00:00-05:00,4.836364797493052
2019-12-30 00:00:00-05:00,4.8334350006324405
2019-12-31 00:00:00-05:00,4.837714419427486
2020-01-02 00:00:00-05:00,4.823454783714887
2020-01-03 00:00:00-05:00,4.808834719748215
2020-01-06 00:00:00-05:00,4.804197380763654
2020-01-07 00:00:00-05:00,4.796342547000311
2020-01-08 00:00:00-05:00,4.79891591514476
2020-01-09 00:00:00-05:00,4.800860801493896
2020-01-10 00:00:00-05:00,4.796420686331474
2020-01-13 00:00:00-05:00,4.805203964072914
2020-01-14 00:00:00-05:00,4.810683402190384
2020-01-15 00:00:00-05:00,4.816898303558481
2020-01-16 00:00:00-05:00,4.791097814970103
2020-01-17 00:00:00-05:00,4.799538750721792
2020-01-21 00:00:00-05:00,4.779096052559752
2020-01-22 00:00:00-05:00,4.781238444063929
2020-01-23 00:00:00-05:00,4.782030870349752
2020-01-24 00:00:00-05:00,4.778460541884645
2020-01-27 00:00:00-05:00,4.755546662618609
2020-01-28 00:00:00-05:00,4.7642110586715845
2020-01-29 00:00:00-05:00,4.75928069079657
2020-01-30 00:00:00-05:00,4.756765942877453
2020-01-31 00:00:00-05:00,4.729845108046835
2020-02-03 00:00:00-05:00,4.742284078198914
2020-02-04 00:00:00-05:00,4.752043451192322
2020-02-05 00:00:00-05:00,4.7708807711853325
2020-02-06 00:00:00-05:00,4.766868214368704
2020-02-07 00:00:00-05:00,4.752696231694542
2020-02-10 00:00:00-05:00,4.7385686466513315
2020-02-11 00:00:00-05:00,4.747298750274267
2020-02-12 00:00:00-05:00,4.750655016320742
2020-02-13 00:00:00-05:00,4.735005208862435
2020-02-14 00:00:00-05:00,4.732428587546929
2020-02-18 00:00:00-05:00,4.725580315227809
2020-02-19 00:00:00-05:00,4.727171336530727
2020-02-20 00:00:00-05:00,4.730108012027519
2020-02-21 00:00:00-05:00,4.726330622693314
2020-02-24 00:00:00-05:00,4.695240875139295
2020-02-25 00:00:00-05:00,4.645074963118054
2020-02-26 00:00:00-05:00,4.640137060000674
2020-02-27 00:00:00-05:00,4.588404601750233
2020-02-28 00:00:00-05:00,4.596672266671334
2020-03-02 00:00:00-05:00,4.604872061108949
2020-03-03 00:00:00-05:00,4.596097629873149
2020-03-04 00:00:00-05:00,4.629724715612713
2020-03-05 00:00:00-05:00,4.579288974379875
2020-03-06 00:00:00-05:00,4.56752982742032
2020-03-09 00:00:00-04:00,4.5268926139324694
2020-03-10 00:00:00-04:00,4.5727404972836325
2020-03-11 00:00:00-04:00,4.5223655079461285
2020-03-12 00:00:00-04:00,4.446661740473862
2020-03-13 00:00:00-04:00,4.493277883140484
2020-03-16 00:00:00-04:00,4.359792017298971
2020-03-17 00:00:00-04:00,4.362215655063158
2020-03-18 00:00:00-04:00,4.237326668480653
2020-03-19 00:00:00-04:00,4.286038534627565
2020-03-20 00:00:00-04:00,4.3264842898328375
2020-03-23 00:00:00-04:00,4.231550378736584
2020-03-24 00:00:00-04:00,4.355292669539441
2020-03-25 00:00:00-04:00,4.398933270310995
2020-03-26 00:00:00-04:00,4.445103386720214
2020-03-27 00:00:00-04:00,4.39061515487651
2020-03-30 00:00:00-04:00,4.401380261073663
2020-03-31 00:00:00-04:00,4.374007352878658
2020-04-01 00:00:00-04:00,4.328614542557103
2020-04-02 00:00:00-04:00,4.339074228331762
2020-04-03 00:00:00-04:00,4.335350994529523
2020-04-06 00:00:00-04:00,4.409609862384188
2020-04-07 00:00:00-04:00,4.459811752290958
2020-04-08 00:00:00-04:00,4.484319715957647
2020-04-09 00:00:00-04:00,4.5244258620001245
2020-04-13 00:00:00-04:00,4.487848603141636
2020-04-14 00:00:00-04:00,4.478302680055354
2020-04-15 00:00:00-04:00,4.430740320321343
2020-04-16 00:00:00-04:00,4.435476025484205
2020-04-17 00:00:00-04:00,4.483891046304683
2020-04-20 00:00:00-04:00,4.459921593154595
2020-04-21 00:00:00-04:00,4.425414243879738
2020-04-22 00:00:00-04:00,4.448550997624992
2020-04-23 00:00:00-04:00,4.453534701812146
2020-04-24 00:00:00-04:00,4.477763622685713
2020-04-27 00:00:00-04:00,4.512312060306569
2020-04-28 00:00:00-04:00,4.464193543608574
2020-04-29 00:00:00-04:00,4.5110612040123685
2020-04-30 00:00:00-04:00,4.456953416441656
2020-05-01 00:00:00-04:00,4.425300637652679
2020-05-04 00:00:00-04:00,4.411916038738169
2020-05-05 00:00:00-04:00,4.428363939963416
2020-05-06 00:00:00-04:00,4.434350586716158
2020-05-07 00:00:00-04:00,4.4517654970664875
2020-05-08 00:00:00-04:00,4.475195171211852
2020-05-11 00:00:00-04:00,4.458089511837032
2020-05-12 00:00:00-04:00,4.426747148014456
2020-05-13 00:00:00-04:00,4.387293710770293
2020-05-14 00:00:00-04:00,4.407622178419977
2020-05-15 00:00:00-04:00,4.418612067528987
2020-05-18 00:00:00-04:00,4.473780575954864
2020-05-19 00:00:00-04:00,4.488586220207249
2020-05-20 00:00:00-04:00,4.517867934178952
2020-05-21 00:00:00-04:00,4.508447723982178
2020-05-22 00:00:00-04:00,4.519845340992861
2020-05-26 00:00:00-04:00,4.558794093973097
2020-05-27 00:00:00-04:00,4.582022247693794
2020-05-28 00:00:00-04:00,4.58485147400503
2020-05-29 00:00:00-04:00,4.575356044143329
2020-06-01 00:00:00-04:00,4.591938578123198
2020-06-02 00:00:00-04:00,4.631300705320042
2020-06-03 00:00:00-04:00,4.669261476929899
2020-06-04 00:00:00-04:00,4.664234609825632
2020-06-05 00:00:00-04:00,4.68938351987089
2020-06-08 00:00:00-04:00,4.684545133950835
2020-06-09 00:00:00-04:00,4.666930708840047
2020-06-10 00:00:00-04:00,4.645338622259111
2020-06-11 00:00:00-04:00,4.5543843183476795
2020-06-12 00:00:00-04:00,4.57496255956664
2020-06-15 00:00:00-04:00,4.590292682975477
2020-06-16 00:00:00-04:00,4.605295910506308
2020-06-17 00:00:00-04:00,4.606345413716477
2020-06-18 00:00:00-04:00,4.60204519108629
2020-06-19 00:00:00-04:00,4.595318888164341
2020-06-22 00:00:00-04:00,4.594836520563216
2020-06-23 00:00:00-04:00,4.595029603426154
2020-06-24 00:00:00-04:00,4.577419439085872
2020-06-25 00:00:00-04:00,4.586117221167248
2020-06-26 00:00:00-04:00,4.579968338077047
2020-06-29 00:00:00-04:00,4.597437730743591
2020-06-30 00:00:00-04:00,4.617628798964726
2020-07-01 00:00:00-04:00,4.6203594190852755
2020-07-02 00:00:00-04:00,4.645613715344753
2020-07-06 00:00:00-04:00,4.653012766506531
2020-07-07 00:00:00-04:00,4.639636405174395
2020-07-08 00:00:00-04:00,4.621487068038924
2020-07-09 00:00:00-04:00,4.60834583285981
2020-07-10 00:00:00-04:00,4.626826607574158
2020-07-13 00:00:00-04:00,4.648452043188876
2020-07-14 00:00:00-04:00,4.669619558445311
2020-07-15 00:00:00-04:00,4.7039329420431075
2020-07-16 00:00:00-04:00,4.700814338781433
2020-07-17 00:00:00-04:00,4.671050675088665
2020-07-20 00:00:00-04:00,4.648543439878297
2020-07-21 00:00:00-04:00,4.655557758749141
2020-07-22 00:00:00-04:00,4.669261476929899
2020-07-23 00:00:00-04:00,4.661621359232463
2020-07-24 00:00:00-04:00,4.659182201041892
2020-07-27 00:00:00-04:00,4.65619312294003
2020-07-28 00:00:00-04:00,4.641111122463484
2020-07-29 00:00:00-04:00,4.6578246103499845
2020-07-30 00:00:00-04:00,4.637605203640418
2020-07-31 00:00:00-04:00,4.632509112976449
2020-08-03 00:00:00-04:00,4.6299978111387805
2020-08-04 00:00:00-04:00,4.633808889704704
2020-08-05 00:00:00-04:00,4.669082495432894
2020-08-06 00:00:00-04:00,4.667110219270476
2020-08-07 00:00:00-04:00,4.692132631930357
2020-08-10 00:00:00-04:00,4.709827703440906
2020-08-11 00:00:00-04:00,4.753362335643623
2020-08-12 00:00:00-04:00,4.7541892479598875
2020-08-13 00:00:00-04:00,4.736006959028648
2020-08-14 00:00:00-04:00,4.737436788700738
2020-08-17 00:00:00-04:00,4.736932340941818
2020-08-18 00:00:00-04:00,4.734996431245145
2020-08-19 00:00:00-04:00,4.7345750820159695
2020-08-20 00:00:00-04:00,4.731197747095168
2020-08-21 00:00:00-04:00,4.731113197674418
2020-08-24 00:00:00-04:00,4.754932917701257
2020-08-25 00:00:00-04:00,4.744472003202949
2020-08-26 00:00:00-04:00,4.745556217079708
2020-08-27 00:00:00-04:00,4.752534804817538
2020-08-28 00:00:00-04:00,4.763485590894047
2020-08-31 00:00:00-04:00,4.749300914967616
2020-09-01 00:00:00-04:00,4.778762923194268
2020-09-02 00:00:00-04:00,4.7946045120593155
2020-09-03 00:00:00-04:00,4.768957014822382
2020-09-04 00:00:00-04:00,4.767489922674662
2020-09-08 00:00:00-04:00,4.7541892479598875
2020-09-09 00:00:00-04:00,4.7895113009169075
2020-09-10 00:00:00-04:00,4.792697628149545
2020-09-11 00:00:00-04:00,4.8034554966775165
2020-09-14 00:00:00-04:00,4.827629909795558
2020-09-15 00:00:00-04:00,4.825400195300032
2020-09-16 00:00:00-04:00,4.818603784050263
2020-09-17 00:00:00-04:00,4.8202298197436555
2020-09-18 00:00:00-04:00,4.792936235012924
2020-09-21 00:00:00-04:00,4.746639521627332
2020-09-22 00:00:00-04:00,4.752783122813311
2020-09-23 00:00:00-04:00,4.731874221307383
2020-09-24 00:00:00-04:00,4.7371845632004455
2020-09-25 00:00:00-04:00,4.74805423977412
2020-09-28 00:00:00-04:00,4.760368900419553
2020-09-29 00:00:00-04:00,4.748719344241192
2020-09-30 00:00:00-04:00,4.763157903270493
2020-10-01 00:00:00-04:00,4.760697503090122
2020-10-02 00:00:00-04:00,4.772858318773935
2020-10-05 00:00:00-04:00,4.794128100288977
2020-10-06 00:00:00-04:00,4.7831886746072785
2020-10-07 00:00:00-04:00,4.817828539312112
2020-10-08 00:00:00-04:00,4.863682059423768
2020-10-09 00:00:00-04:00,4.870253505318436
2020-10-12 00:00:00-04:00,4.871503824114871
2020-10-13 00:00:00-04:00,4.853106978404149
2020-10-14 00:00:00-04:00,4.8607142769551555
2020-10-15 00:00:00-04:00,4.876562692916824
2020-10-16 00:00:00-04:00,4.879629309273736
